Data from Chemiepractica_Absorbance__14__11-35-13-119.txt Node

Date: Mon Dec 09 11:35:13 CET 2024
User: r0948668
Spectrometer: USB4F07138
Trigger mode: 4
Integration Time (sec): 6,000000E-3
Scans to average: 20
Electric dark correction enabled: true
Nonlinearity correction enabled: false
Boxcar width: 5
XAxis mode: Wavelengths
Number of Pixels in Spectrum: 3648
>>>>>Begin Spectral Data<<<<<
176,779	-0,53197
176,999	-1,32111
177,218	-0,58317
177,438	-0
177,658	-0
177,878	-0
178,097	0,33252
178,317	-0,18729
178,537	-0,18477
178,757	-0,18401
178,976	0,4768
179,196	0,9431
179,416	-0
179,635	-0,2706
179,855	-0,0664
180,075	-0,07466
180,294	-0,09638
180,514	-0,08581
180,734	-0,05162
180,953	-0,02964
181,173	-0,02816
181,392	-0,04394
181,612	-0,03166
181,832	-0,00759
182,051	-0,00602
182,271	-0,00839
182,49	-0,00966
182,71	-0,00101
182,929	0,01636
183,149	0,00449
183,368	0,00294
183,588	0,00052
183,807	0,00695
184,027	0,02056
184,246	0,01821
184,466	0,02342
184,685	0,02102
184,905	0,03137
185,124	0,02979
185,344	0,01573
185,563	0,01822
185,782	0,02015
186,002	0,01752
186,221	0,01794
186,44	0,00802
186,66	0,01036
186,879	0,01757
187,099	0,00937
187,318	0,00159
187,537	-0,00489
187,756	-0,00087
187,976	0,00524
188,195	-0,00562
188,414	0,00352
188,634	0,00082
188,853	0,01086
189,072	0,01206
189,291	-0,01151
189,511	0,00544
189,73	0,01385
189,949	0,01789
190,168	0,02169
190,387	0,03185
190,607	0,04276
190,826	0,04354
191,045	0,03971
191,264	0,02916
191,483	0,02342
191,702	0,03676
191,921	0,03334
192,141	0,03735
192,36	0,03401
192,579	0,03189
192,798	0,03068
193,017	0,01795
193,236	0,01541
193,455	0,01937
193,674	0,02411
193,893	0,02156
194,112	0,02556
194,331	0,01608
194,55	0,00669
194,769	0,00092
194,988	-0,00439
195,207	0,00888
195,426	0,0096
195,645	0,00621
195,864	0,00798
196,083	0,01531
196,302	0,00992
196,521	0,01251
196,739	0,00623
196,958	-0,00641
197,177	0,00573
197,396	0,01612
197,615	0,00836
197,834	-0,0085
198,053	-0,0074
198,271	-0,02137
198,49	-0,02859
198,709	-0,01223
198,928	-0,00912
199,147	-0,00598
199,365	0,01975
199,584	0,01131
199,803	-0,00198
200,022	-0,01191
200,24	0,00204
200,459	0,00473
200,678	0,01574
200,897	0,01093
201,115	0,0039
201,334	0,00875
201,553	0,01155
201,771	-0,00716
201,99	-0,01009
202,209	0,00386
202,427	0,00152
202,646	0,01112
202,864	-0,0022
203,083	-0,00899
203,302	0,00341
203,52	0,00865
203,739	-0,00421
203,957	0,00171
204,176	0,01282
204,394	0,02361
204,613	0,02269
204,831	0,04016
205,05	0,04117
205,268	0,05935
205,487	0,06124
205,705	0,04739
205,924	0,05072
206,142	0,06519
206,361	0,07345
206,579	0,074
206,798	0,0726
207,016	0,06633
207,234	0,05896
207,453	0,05407
207,671	0,06098
207,89	0,06677
208,108	0,08341
208,326	0,0751
208,545	0,05364
208,763	0,05338
208,981	0,04398
209,2	0,03221
209,418	0,02847
209,636	0,01365
209,855	0,01439
210,073	-0,00375
210,291	-0,02122
210,509	-0,03101
210,728	-0,03308
210,946	-0,03235
211,164	-0,04886
211,382	-0,03962
211,6	-0,0211
211,819	-0,01345
212,037	-0,00848
212,255	-0,01494
212,473	-0,01421
212,691	0,00676
212,909	0,00886
213,128	0,0042
213,346	0,01576
213,564	0,02739
213,782	0,02082
214	0,02186
214,218	0,01725
214,436	0,03213
214,654	0,03292
214,872	0,03966
215,09	0,01906
215,308	0,02369
215,526	0,0437
215,744	0,02444
215,962	0,01645
216,18	0,00843
216,398	0,00548
216,616	0,00086
216,834	-0,0065
217,052	-0,00498
217,27	-0,01495
217,488	0,00566
217,706	0,0082
217,924	-0,00579
218,142	0,00433
218,36	0,0114
218,578	0,03215
218,795	0,01301
219,013	0,01616
219,231	0,01525
219,449	0,01371
219,667	0,0236
219,885	0,01643
220,102	0,0127
220,32	0,00666
220,538	0,01582
220,756	0,01412
220,973	0,00275
221,191	0,0171
221,409	0,01485
221,627	0,01727
221,844	0,022
222,062	0,01523
222,28	0,01145
222,497	0,00162
222,715	0,0118
222,933	0,00131
223,15	-0,00564
223,368	-0,00006
223,586	0,00912
223,803	0,01845
224,021	0,0121
224,239	0,0128
224,456	0,01535
224,674	0,01751
224,891	0,01561
225,109	-0,0024
225,326	-0,00965
225,544	-0,0082
225,762	-0,01444
225,979	-0,01972
226,197	-0,02565
226,414	-0,02335
226,632	-0,03609
226,849	-0,03876
227,066	-0,03244
227,284	-0,02431
227,501	0,00169
227,719	0,02353
227,936	0,02979
228,154	0,03965
228,371	0,03852
228,588	0,03631
228,806	0,04557
229,023	0,0463
229,241	0,05587
229,458	0,04923
229,675	0,05541
229,893	0,03909
230,11	0,03194
230,327	0,0344
230,545	0,03194
230,762	0,02944
230,979	0,03565
231,196	0,03653
231,414	0,03836
231,631	0,0287
231,848	0,02057
232,065	-0,00055
232,283	0,00441
232,5	-0,00163
232,717	-0,02096
232,934	-0,0223
233,151	-0,02689
233,368	-0,02911
233,586	-0,04557
233,803	-0,03737
234,02	-0,03035
234,237	-0,02248
234,454	-0,00192
234,671	0,01277
234,888	0,02609
235,105	0,04377
235,322	0,04443
235,54	0,05629
235,757	0,05696
235,974	0,06239
236,191	0,05881
236,408	0,05735
236,625	0,05584
236,842	0,04432
237,059	0,03343
237,276	0,01588
237,493	0,00978
237,71	0,01038
237,926	-0,00469
238,143	-0,01161
238,36	-0,00906
238,577	-0,01629
238,794	-0,01771
239,011	-0,01709
239,228	-0,01261
239,445	-0,01286
239,662	-0,00053
239,878	0,00813
240,095	0,00291
240,312	0,01524
240,529	0,01881
240,746	0,01508
240,963	0,01678
241,179	0,01631
241,396	0,02538
241,613	0,01572
241,83	0,01593
242,046	0,01101
242,263	0,01806
242,48	0,01777
242,697	0,00878
242,913	0,00927
243,13	0,00117
243,347	0,0121
243,563	0,01777
243,78	0,0089
243,997	0,01633
244,213	0,01516
244,43	0,02776
244,646	0,01994
244,863	0,02508
245,08	0,0264
245,296	0,0296
245,513	0,03718
245,729	0,03154
245,946	0,0301
246,162	0,032
246,379	0,03369
246,595	0,03152
246,812	0,01383
247,028	0,00988
247,245	0,00907
247,461	0,00793
247,678	0,00423
247,894	0,0069
248,111	0,00701
248,327	0,00229
248,544	-0,00663
248,76	-0,00621
248,976	-0,00294
249,193	-0,00402
249,409	0,00042
249,626	-0,01009
249,842	-0,00867
250,058	-0,0126
250,275	-0,01195
250,491	-0,01965
250,707	-0,01548
250,924	-0,00515
251,14	-0,01119
251,356	-0,0097
251,572	-0,01155
251,789	-0,01007
252,005	0,00517
252,221	0,00856
252,437	0,01019
252,654	0,00893
252,87	0,01621
253,086	0,02157
253,302	0,01781
253,518	0,01702
253,735	0,01314
253,951	0,01636
254,167	0,00896
254,383	-0,00835
254,599	-0,0102
254,815	-0,01478
255,031	-0,02731
255,247	-0,03489
255,463	-0,03663
255,68	-0,01897
255,896	-0,01211
256,112	-0,00509
256,328	0,00088
256,544	0,0131
256,76	0,02449
256,976	0,02309
257,192	0,02535
257,408	0,03985
257,624	0,04975
257,84	0,04782
258,056	0,03383
258,272	0,02773
258,487	0,00619
258,703	-0,00057
258,919	-0,00925
259,135	-0,00637
259,351	-0,00067
259,567	0,00554
259,783	0,00817
259,999	0,01126
260,215	0,0117
260,43	0,00595
260,646	0,01216
260,862	0,03391
261,078	0,03791
261,294	0,02839
261,509	0,03045
261,725	0,03743
261,941	0,03713
262,157	0,03419
262,372	0,03405
262,588	0,03287
262,804	0,03947
263,019	0,03953
263,235	0,03059
263,451	0,03303
263,667	0,04658
263,882	0,04556
264,098	0,0432
264,313	0,04916
264,529	0,04087
264,745	0,03952
264,96	0,02846
265,176	0,02683
265,391	0,02732
265,607	0,03073
265,823	0,02256
266,038	0,0126
266,254	0,01976
266,469	0,01927
266,685	0,01043
266,9	0,01741
267,116	0,01697
267,331	0,02727
267,547	0,02607
267,762	0,02057
267,978	0,01564
268,193	0,0325
268,408	0,03888
268,624	0,03807
268,839	0,0336
269,055	0,02974
269,27	0,01929
269,485	0,01514
269,701	0,02087
269,916	0,01693
270,132	0,0242
270,347	0,0296
270,562	0,02268
270,777	0,02647
270,993	0,02026
271,208	0,01685
271,423	0,02683
271,639	0,03968
271,854	0,0373
272,069	0,02956
272,284	0,03324
272,5	0,02434
272,715	0,02394
272,93	0,01463
273,145	0,00546
273,36	0,00709
273,576	0,01165
273,791	0,00263
274,006	-0,01851
274,221	-0,01799
274,436	-0,01686
274,651	-0,0155
274,866	-0,01078
275,081	-0,00515
275,296	0,00167
275,512	0,00759
275,727	0,00878
275,942	0,00695
276,157	0,01313
276,372	0,03641
276,587	0,04217
276,802	0,04348
277,017	0,04027
277,232	0,04804
277,447	0,04849
277,662	0,03825
277,877	0,02873
278,092	0,01846
278,306	0,02239
278,521	0,02183
278,736	0,01929
278,951	0,02185
279,166	0,01416
279,381	0,0119
279,596	0,0004
279,811	-0,00676
280,025	-0,00364
280,24	-0,00056
280,455	0,01027
280,67	0,00539
280,885	0,00487
281,099	-0,00586
281,314	-0,02247
281,529	-0,01
281,744	0,00602
281,959	0,01047
282,173	0,02017
282,388	0,03296
282,603	0,03684
282,817	0,03643
283,032	0,04025
283,247	0,0379
283,461	0,0442
283,676	0,04148
283,891	0,0284
284,105	0,01523
284,32	0,01276
284,535	0,00595
284,749	0,00423
284,964	0,00494
285,178	0,0004
285,393	0,00159
285,607	-0,00495
285,822	-0,00024
286,036	0,01544
286,251	0,01925
286,465	0,02421
286,68	0,03303
286,894	0,03324
287,109	0,03153
287,323	0,03005
287,538	0,03088
287,752	0,0215
287,967	0,0283
288,181	0,02084
288,396	0,01613
288,61	0,0244
288,824	0,02533
289,039	0,02268
289,253	0,02227
289,467	0,02549
289,682	0,01784
289,896	0,02187
290,11	0,03143
290,325	0,0294
290,539	0,02249
290,753	0,02748
290,968	0,01982
291,182	0,01289
291,396	0,01301
291,61	0,02263
291,825	0,01878
292,039	0,02879
292,253	0,02626
292,467	0,0217
292,681	0,01689
292,896	0,02
293,11	0,00552
293,324	0,00814
293,538	0,0094
293,752	0,00454
293,966	-0,00164
294,18	-0,00257
294,394	-0,01351
294,608	-0,00756
294,823	-0,01062
295,037	-0,00618
295,251	0,00187
295,465	0,01162
295,679	0,00687
295,893	0,00502
296,107	0,0054
296,321	0,01391
296,535	0,01466
296,749	0,01613
296,963	0,00554
297,177	0,00282
297,391	0,00861
297,604	-0,00219
297,818	-0,00484
298,032	-0,00355
298,246	-0,00495
298,46	-0,00392
298,674	-0,00591
298,888	-0,01219
299,102	-0,00109
299,315	0,00548
299,529	0,01694
299,743	0,01627
299,957	0,01838
300,171	0,01741
300,385	0,02906
300,598	0,03768
300,812	0,04362
301,026	0,03265
301,24	0,04252
301,453	0,03996
301,667	0,03693
301,881	0,03311
302,094	0,03028
302,308	0,02686
302,522	0,03496
302,735	0,02157
302,949	0,01871
303,163	0,00958
303,376	0,01117
303,59	0,01163
303,803	0,00645
304,017	0,0092
304,231	0,01316
304,444	0,02157
304,658	0,0326
304,871	0,03416
305,085	0,03484
305,298	0,03089
305,512	0,03755
305,725	0,03854
305,939	0,03133
306,152	0,02657
306,366	0,02092
306,579	0,02327
306,793	0,02324
307,006	0,02547
307,22	0,02196
307,433	0,02551
307,646	0,02475
307,86	0,01716
308,073	0,02091
308,286	0,0191
308,5	0,02552
308,713	0,02066
308,926	0,01366
309,14	0,00541
309,353	0,00097
309,566	-0,00654
309,78	-0,01153
309,993	-0,00757
310,206	0,00097
310,419	-0,00205
310,633	-0,0011
310,846	0,00882
311,059	0,01496
311,272	0,00988
311,486	0,00437
311,699	-0,00093
311,912	0,00895
312,125	0,00898
312,338	0,00624
312,551	-0,00108
312,764	0,00235
312,978	0,01723
313,191	0,01083
313,404	-0,00048
313,617	0,00395
313,83	0,01457
314,043	0,02049
314,256	0,01483
314,469	0,01787
314,682	0,02136
314,895	0,02442
315,108	0,01806
315,321	0,00221
315,534	-0,00141
315,747	0,01194
315,96	0,01069
316,173	0,00708
316,386	0,00669
316,599	0,01077
316,812	0,01239
317,025	0,01091
317,237	0,01268
317,45	0,01059
317,663	0,01699
317,876	0,01701
318,089	0,01457
318,302	0,01346
318,515	0,00697
318,727	-0,00172
318,94	-0,00858
319,153	-0,01727
319,366	-0,01285
319,578	-0,01587
319,791	-0,00678
320,004	-0,01297
320,217	-0,01437
320,429	-0,01492
320,642	-0,01057
320,855	-0,01021
321,067	-0,00183
321,28	-0,00091
321,493	0,01172
321,705	0,00356
321,918	0,00387
322,131	0,00015
322,343	0,00506
322,556	0,007
322,768	0,00632
322,981	0,00189
323,194	0,00984
323,406	0,00419
323,619	0,01161
323,831	0,01126
324,044	0,02355
324,256	0,02618
324,469	0,02181
324,681	0,01994
324,894	0,02333
325,106	0,02379
325,319	0,02124
325,531	0,01816
325,743	0,02006
325,956	0,02092
326,168	0,01294
326,381	0,00709
326,593	-0,00067
326,805	0,00524
327,018	0,00319
327,23	-0,00875
327,442	-0,00328
327,655	-0,00308
327,867	0,00018
328,079	-0,00135
328,292	-0,0091
328,504	0,00371
328,716	-0,00163
328,928	0,00206
329,141	0,0062
329,353	-0,00076
329,565	0,01192
329,777	0,00995
329,99	0,01445
330,202	0,01463
330,414	0,01257
330,626	0,01219
330,838	0,00389
331,05	-0,00311
331,263	-0,00297
331,475	-0,00542
331,687	-0,00066
331,899	0,00229
332,111	0,00343
332,323	-0,00315
332,535	-0,00036
332,747	0,00738
332,959	0,00659
333,171	0,01005
333,383	0,02211
333,595	0,02935
333,807	0,02251
334,019	0,0248
334,231	0,00941
334,443	0,00845
334,655	0,01266
334,867	0,00843
335,079	0,0036
335,291	-0,00277
335,503	-0,00535
335,714	-0,01007
335,926	-0,00483
336,138	-0,00488
336,35	-0,00411
336,562	0,01145
336,774	0,00935
336,986	0,0153
337,197	0,01436
337,409	0,0193
337,621	0,0269
337,833	0,02804
338,044	0,03007
338,256	0,02532
338,468	0,03128
338,68	0,0322
338,891	0,02677
339,103	0,02203
339,315	0,01169
339,526	0,00831
339,738	-0,00198
339,95	-0,00594
340,161	0,00611
340,373	0,00508
340,585	-0,01025
340,796	-0,0128
341,008	-0,01099
341,219	-0,00434
341,431	-0,00585
341,642	0,00328
341,854	0,00789
342,065	0,02059
342,277	0,0183
342,489	0,00605
342,7	0,01144
342,912	0,02362
343,123	0,02088
343,334	0,01761
343,546	-0,00251
343,757	0,00748
343,969	0,00048
344,18	0,00287
344,392	-0,00459
344,603	0,0113
344,814	0,00803
345,026	0,00476
345,237	0,00284
345,448	0,00334
345,66	0,00292
345,871	0,02168
346,082	0,0206
346,294	0,02183
346,505	0,01513
346,716	0,02038
346,927	0,01306
347,139	0,0173
347,35	0,01655
347,561	0,01734
347,772	0,01713
347,984	0,02453
348,195	0,02262
348,406	0,0207
348,617	0,03538
348,828	0,03519
349,039	0,02897
349,251	0,02473
349,462	0,02778
349,673	0,0245
349,884	0,02782
350,095	0,02735
350,306	0,02282
350,517	0,0237
350,728	0,01747
350,939	0,007
351,15	0,00436
351,361	0,00833
351,572	0,0143
351,783	0,01256
351,994	0,01413
352,205	0,00777
352,416	0,00887
352,627	0,00843
352,838	0,00704
353,049	0,01475
353,26	0,01108
353,471	0,01403
353,682	0,01068
353,893	0,00673
354,103	0,00547
354,314	0,0063
354,525	0,01005
354,736	0,01624
354,947	0,0194
355,157	0,01626
355,368	0,01435
355,579	0,01425
355,79	0,01555
356,001	0,01538
356,211	0,02114
356,422	0,01082
356,633	0,01269
356,843	0,01241
357,054	0,00555
357,265	0,00703
357,476	0,00705
357,686	0,00558
357,897	0,0104
358,107	0,00776
358,318	0,01148
358,529	0,01058
358,739	0,02714
358,95	0,02535
359,16	0,02873
359,371	0,02721
359,582	0,02339
359,792	0,021
360,003	0,01962
360,213	0,0115
360,424	0,01657
360,634	0,01896
360,845	0,01368
361,055	0,00883
361,266	0,00886
361,476	0,00839
361,686	0,01116
361,897	0,00653
362,107	0,01171
362,318	0,0136
362,528	0,01898
362,738	0,01359
362,949	0,01274
363,159	0,01845
363,369	0,0161
363,58	0,01121
363,79	0,00577
364	0,00034
364,211	0,00102
364,421	-0,00213
364,631	0,00193
364,842	0,00197
365,052	0,0005
365,262	-0,00233
365,472	-0,00099
365,682	0,00148
365,893	0,00233
366,103	0,00671
366,313	0,01215
366,523	0,0215
366,733	0,02372
366,943	0,02008
367,154	0,02139
367,364	0,03276
367,574	0,03354
367,784	0,02946
367,994	0,03135
368,204	0,03602
368,414	0,0311
368,624	0,02978
368,834	0,0228
369,044	0,01771
369,254	0,01904
369,464	0,0217
369,674	0,0182
369,884	0,01566
370,094	0,01376
370,304	0,00506
370,514	0,01203
370,724	0,01262
370,934	0,01163
371,144	0,00886
371,353	0,01268
371,563	0,01067
371,773	0,00671
371,983	0,0034
372,193	0,00302
372,403	0,00425
372,612	0,00993
372,822	0,00732
373,032	0,0086
373,242	0,01099
373,452	0,01387
373,661	0,01745
373,871	0,01875
374,081	0,02195
374,29	0,02438
374,5	0,02755
374,71	0,02458
374,92	0,02434
375,129	0,01945
375,339	0,01828
375,549	0,01192
375,758	0,01416
375,968	0,00928
376,177	0,00341
376,387	-0,00287
376,597	-0,00602
376,806	-0,00022
377,016	0,00049
377,225	-0,00421
377,435	-0,00276
377,644	-0,00514
377,854	-0,00129
378,063	-0,00309
378,273	-0,00035
378,482	0,00506
378,692	0,0114
378,901	0,01253
379,111	0,00404
379,32	0,01067
379,529	0,01503
379,739	0,01439
379,948	0,01873
380,158	0,02185
380,367	0,02466
380,576	0,02347
380,786	0,01977
380,995	0,02122
381,204	0,02522
381,414	0,02945
381,623	0,02693
381,832	0,02532
382,041	0,02682
382,251	0,02746
382,46	0,02414
382,669	0,01996
382,878	0,01942
383,088	0,02529
383,297	0,02081
383,506	0,01705
383,715	0,01486
383,924	0,00935
384,133	0,00971
384,342	0,0103
384,552	0,00953
384,761	0,01521
384,97	0,01657
385,179	0,02055
385,388	0,01612
385,597	0,01577
385,806	0,01738
386,015	0,01866
386,224	0,01756
386,433	0,01654
386,642	0,01209
386,851	0,0114
387,06	0,00934
387,269	0,01008
387,478	0,00673
387,687	0,00862
387,896	0,00579
388,105	0,00414
388,314	-0,00098
388,523	0,00359
388,731	0,00263
388,94	0,00402
389,149	0,00924
389,358	0,00942
389,567	0,01267
389,776	0,01541
389,984	0,01396
390,193	0,01887
390,402	0,01791
390,611	0,0209
390,819	0,0205
391,028	0,02586
391,237	0,02943
391,446	0,02182
391,654	0,02165
391,863	0,01634
392,072	0,01461
392,28	0,01458
392,489	0,01225
392,698	0,01414
392,906	0,01521
393,115	0,01532
393,324	0,01247
393,532	0,00984
393,741	0,01084
393,949	0,00676
394,158	0,0085
394,366	0,00688
394,575	0,00604
394,783	0,00939
394,992	0,00735
395,2	0,00425
395,409	0,00452
395,617	0,00375
395,826	0,0043
396,034	0,00289
396,243	0,00504
396,451	0,00377
396,66	0,00765
396,868	0,00782
397,076	0,00406
397,285	0,00298
397,493	0,00508
397,701	0,004
397,91	0,00349
398,118	0,00459
398,326	0,00634
398,535	0,00629
398,743	0,00912
398,951	0,00625
399,159	0,00912
399,368	0,01251
399,576	0,01415
399,784	0,01829
399,992	0,01917
400,201	0,01861
400,409	0,01619
400,617	0,01772
400,825	0,01863
401,033	0,01623
401,241	0,01705
401,45	0,01638
401,658	0,01544
401,866	0,01885
402,074	0,01682
402,282	0,01781
402,49	0,01726
402,698	0,01877
402,906	0,01712
403,114	0,01647
403,322	0,01661
403,53	0,0172
403,738	0,01545
403,946	0,014
404,154	0,00963
404,362	0,00921
404,57	0,00768
404,778	0,00998
404,986	0,01127
405,194	0,0119
405,402	0,01252
405,609	0,01355
405,817	0,01256
406,025	0,01624
406,233	0,01881
406,441	0,02079
406,649	0,01799
406,856	0,01764
407,064	0,01789
407,272	0,01657
407,48	0,01578
407,687	0,01619
407,895	0,01515
408,103	0,01552
408,311	0,01378
408,518	0,0113
408,726	0,01304
408,934	0,01669
409,141	0,01641
409,349	0,01258
409,557	0,01297
409,764	0,01311
409,972	0,01252
410,18	0,00998
410,387	0,01131
410,595	0,01232
410,802	0,01094
411,01	0,00836
411,217	0,00737
411,425	0,00951
411,632	0,01238
411,84	0,01172
412,047	0,01131
412,255	0,01111
412,462	0,01405
412,67	0,01359
412,877	0,0135
413,085	0,01474
413,292	0,01572
413,499	0,01405
413,707	0,01313
413,914	0,01313
414,122	0,01341
414,329	0,01345
414,536	0,01305
414,744	0,01224
414,951	0,01063
415,158	0,01043
415,366	0,00915
415,573	0,00871
415,78	0,01002
415,987	0,00822
416,195	0,00937
416,402	0,00753
416,609	0,00987
416,816	0,01003
417,023	0,01125
417,231	0,01304
417,438	0,01276
417,645	0,01276
417,852	0,01131
418,059	0,01133
418,266	0,01167
418,473	0,00905
418,68	0,01105
418,888	0,00969
419,095	0,01106
419,302	0,01088
419,509	0,00877
419,716	0,00825
419,923	0,0104
420,13	0,00939
420,337	0,00881
420,544	0,01019
420,751	0,0111
420,958	0,01083
421,165	0,01117
421,371	0,00957
421,578	0,00817
421,785	0,00773
421,992	0,00846
422,199	0,00789
422,406	0,00947
422,613	0,00997
422,82	0,00996
423,026	0,01017
423,233	0,00906
423,44	0,00735
423,647	0,00723
423,854	0,00725
424,06	0,00779
424,267	0,00698
424,474	0,00612
424,681	0,00683
424,887	0,00511
425,094	0,00385
425,301	0,00507
425,507	0,0055
425,714	0,00607
425,921	0,00671
426,127	0,00704
426,334	0,00667
426,54	0,00624
426,747	0,00689
426,954	0,0069
427,16	0,0073
427,367	0,00738
427,573	0,00685
427,78	0,00628
427,986	0,00666
428,193	0,00627
428,399	0,00704
428,606	0,00745
428,812	0,00764
429,019	0,00782
429,225	0,00749
429,432	0,00859
429,638	0,00913
429,845	0,00818
430,051	0,00991
430,257	0,00917
430,464	0,00952
430,67	0,00902
430,876	0,00881
431,083	0,01008
431,289	0,01016
431,495	0,01155
431,702	0,01059
431,908	0,00875
432,114	0,00818
432,32	0,00711
432,527	0,00797
432,733	0,00796
432,939	0,00792
433,145	0,00808
433,351	0,00755
433,558	0,00748
433,764	0,00728
433,97	0,00757
434,176	0,00881
434,382	0,01042
434,588	0,00965
434,794	0,00822
435,001	0,00788
435,207	0,007
435,413	0,00684
435,619	0,00715
435,825	0,00645
436,031	0,00626
436,237	0,0067
436,443	0,00738
436,649	0,00656
436,855	0,00773
437,061	0,0089
437,267	0,0091
437,473	0,00989
437,679	0,0106
437,884	0,00987
438,09	0,01004
438,296	0,00928
438,502	0,00831
438,708	0,00677
438,914	0,00685
439,12	0,00688
439,325	0,00687
439,531	0,00782
439,737	0,00797
439,943	0,00783
440,149	0,00734
440,354	0,00769
440,56	0,00725
440,766	0,00729
440,972	0,00852
441,177	0,00851
441,383	0,00902
441,589	0,0088
441,794	0,00829
442	0,00867
442,206	0,00813
442,411	0,0087
442,617	0,00938
442,822	0,01045
443,028	0,01038
443,234	0,01163
443,439	0,01164
443,645	0,01146
443,85	0,01182
444,056	0,0115
444,261	0,01204
444,467	0,01283
444,672	0,01286
444,878	0,01224
445,083	0,01183
445,289	0,01229
445,494	0,01118
445,699	0,01133
445,905	0,01091
446,11	0,0114
446,316	0,01121
446,521	0,00987
446,726	0,00994
446,932	0,01001
447,137	0,01059
447,342	0,00976
447,548	0,00935
447,753	0,00955
447,958	0,00969
448,164	0,00896
448,369	0,00876
448,574	0,0087
448,779	0,00877
448,984	0,00857
449,19	0,00902
449,395	0,00907
449,6	0,00985
449,805	0,01009
450,01	0,01019
450,215	0,00975
450,421	0,01082
450,626	0,01067
450,831	0,01045
451,036	0,01136
451,241	0,01161
451,446	0,01148
451,651	0,01105
451,856	0,01153
452,061	0,0119
452,266	0,01111
452,471	0,01154
452,676	0,01177
452,881	0,01202
453,086	0,01293
453,291	0,01287
453,496	0,01227
453,701	0,01164
453,906	0,01148
454,111	0,01069
454,316	0,01064
454,52	0,01143
454,725	0,01052
454,93	0,0103
455,135	0,01002
455,34	0,00933
455,545	0,00989
455,749	0,00979
455,954	0,00976
456,159	0,01042
456,364	0,01156
456,568	0,01135
456,773	0,01139
456,978	0,01261
457,182	0,01347
457,387	0,01334
457,592	0,0133
457,796	0,01207
458,001	0,01229
458,206	0,01255
458,41	0,01266
458,615	0,01256
458,82	0,01291
459,024	0,01299
459,229	0,0131
459,433	0,01225
459,638	0,01297
459,842	0,01403
460,047	0,01426
460,251	0,01472
460,456	0,01456
460,66	0,01489
460,865	0,01439
461,069	0,01415
461,274	0,01377
461,478	0,01347
461,682	0,01325
461,887	0,01322
462,091	0,01304
462,296	0,01388
462,5	0,01405
462,704	0,01454
462,909	0,01379
463,113	0,01403
463,317	0,01408
463,522	0,01488
463,726	0,01487
463,93	0,01575
464,134	0,01537
464,339	0,01507
464,543	0,01443
464,747	0,0135
464,951	0,01352
465,155	0,01329
465,36	0,01352
465,564	0,01357
465,768	0,01329
465,972	0,01426
466,176	0,01361
466,38	0,01385
466,584	0,01408
466,788	0,01434
466,993	0,01507
467,197	0,01497
467,401	0,01518
467,605	0,01486
467,809	0,01561
468,013	0,01586
468,217	0,01495
468,421	0,01504
468,625	0,01525
468,829	0,0154
469,033	0,01501
469,236	0,01547
469,44	0,01528
469,644	0,01548
469,848	0,0152
470,052	0,01536
470,256	0,01481
470,46	0,01508
470,664	0,01533
470,867	0,01533
471,071	0,01484
471,275	0,01533
471,479	0,0154
471,683	0,01552
471,886	0,01633
472,09	0,01677
472,294	0,01647
472,497	0,01697
472,701	0,01678
472,905	0,01688
473,109	0,01709
473,312	0,01761
473,516	0,01813
473,719	0,01783
473,923	0,01824
474,127	0,01774
474,33	0,01752
474,534	0,01782
474,737	0,0181
474,941	0,01879
475,145	0,01882
475,348	0,01866
475,552	0,01862
475,755	0,01834
475,959	0,01898
476,162	0,01903
476,366	0,01926
476,569	0,01944
476,772	0,01921
476,976	0,01918
477,179	0,01908
477,383	0,01892
477,586	0,01865
477,789	0,01887
477,993	0,01901
478,196	0,0188
478,399	0,01907
478,603	0,0193
478,806	0,02012
479,009	0,02057
479,213	0,02041
479,416	0,02043
479,619	0,02112
479,822	0,02197
480,026	0,02241
480,229	0,02236
480,432	0,0226
480,635	0,02257
480,838	0,02258
481,041	0,02172
481,245	0,02149
481,448	0,02135
481,651	0,02167
481,854	0,02155
482,057	0,02143
482,26	0,02146
482,463	0,02199
482,666	0,02243
482,869	0,0226
483,072	0,0225
483,275	0,02306
483,478	0,02309
483,681	0,02387
483,884	0,02357
484,087	0,02371
484,29	0,02388
484,493	0,02381
484,696	0,02397
484,899	0,02371
485,102	0,02377
485,305	0,02413
485,508	0,02453
485,71	0,02506
485,913	0,02513
486,116	0,02546
486,319	0,02577
486,522	0,02614
486,725	0,02628
486,927	0,02638
487,13	0,02679
487,333	0,02742
487,536	0,028
487,738	0,02844
487,941	0,02869
488,144	0,02907
488,346	0,02921
488,549	0,02907
488,752	0,02889
488,954	0,02926
489,157	0,02924
489,359	0,02927
489,562	0,02936
489,765	0,02906
489,967	0,0289
490,17	0,02894
490,372	0,02901
490,575	0,0294
490,777	0,0298
490,98	0,03
491,182	0,02998
491,385	0,03037
491,587	0,03051
491,79	0,0306
491,992	0,03091
492,195	0,03102
492,397	0,03116
492,599	0,03112
492,802	0,03129
493,004	0,0315
493,207	0,03188
493,409	0,03223
493,611	0,03215
493,814	0,03263
494,016	0,03262
494,218	0,03279
494,42	0,03312
494,623	0,03359
494,825	0,03381
495,027	0,03383
495,229	0,034
495,432	0,03389
495,634	0,03404
495,836	0,03444
496,038	0,03444
496,24	0,03469
496,442	0,03471
496,645	0,03468
496,847	0,03461
497,049	0,03488
497,251	0,03531
497,453	0,03563
497,655	0,03608
497,857	0,03656
498,059	0,03689
498,261	0,03706
498,463	0,03735
498,665	0,03764
498,867	0,03799
499,069	0,03839
499,271	0,03856
499,473	0,03879
499,675	0,03885
499,877	0,03919
500,079	0,0394
500,281	0,03947
500,482	0,03966
500,684	0,04002
500,886	0,0403
501,088	0,04051
501,29	0,04076
501,492	0,04119
501,693	0,04166
501,895	0,04214
502,097	0,04238
502,299	0,04245
502,5	0,04266
502,702	0,04292
502,904	0,04324
503,106	0,04373
503,307	0,04401
503,509	0,04422
503,711	0,04435
503,912	0,04433
504,114	0,04438
504,315	0,04444
504,517	0,04476
504,719	0,04524
504,92	0,04547
505,122	0,04577
505,323	0,04594
505,525	0,04617
505,726	0,04654
505,928	0,0467
506,129	0,04708
506,331	0,04737
506,532	0,04794
506,734	0,04801
506,935	0,04832
507,137	0,04856
507,338	0,04844
507,539	0,04859
507,741	0,04909
507,942	0,04919
508,143	0,0498
508,345	0,04996
508,546	0,05053
508,747	0,0506
508,949	0,05119
509,15	0,05117
509,351	0,05144
509,553	0,05169
509,754	0,05203
509,955	0,05215
510,156	0,05257
510,357	0,05269
510,559	0,05309
510,76	0,05302
510,961	0,05349
511,162	0,05372
511,363	0,0543
511,564	0,05459
511,766	0,05509
511,967	0,05551
512,168	0,05596
512,369	0,05621
512,57	0,05649
512,771	0,0569
512,972	0,05734
513,173	0,05788
513,374	0,0582
513,575	0,05844
513,776	0,05903
513,977	0,05912
514,178	0,05938
514,379	0,05948
514,58	0,05997
514,781	0,06062
514,981	0,06071
515,182	0,06095
515,383	0,06101
515,584	0,06135
515,785	0,06178
515,986	0,06199
516,187	0,06252
516,387	0,0626
516,588	0,06312
516,789	0,06343
516,99	0,06356
517,19	0,06394
517,391	0,06451
517,592	0,06474
517,793	0,06497
517,993	0,06535
518,194	0,06577
518,395	0,06612
518,595	0,06665
518,796	0,06692
518,996	0,06716
519,197	0,06751
519,398	0,06781
519,598	0,06801
519,799	0,06833
519,999	0,06873
520,2	0,06893
520,4	0,06901
520,601	0,06951
520,801	0,06985
521,002	0,07012
521,202	0,07039
521,403	0,0709
521,603	0,07122
521,804	0,07147
522,004	0,07186
522,204	0,07215
522,405	0,07227
522,605	0,07263
522,806	0,07285
523,006	0,07325
523,206	0,07378
523,407	0,0743
523,607	0,07456
523,807	0,07496
524,007	0,07537
524,208	0,07573
524,408	0,07602
524,608	0,07664
524,808	0,07721
525,009	0,07763
525,209	0,07788
525,409	0,07824
525,609	0,07852
525,809	0,07894
526,009	0,07924
526,209	0,07961
526,41	0,08004
526,61	0,08065
526,81	0,081
527,01	0,08137
527,21	0,08161
527,41	0,08209
527,61	0,08222
527,81	0,0825
528,01	0,08265
528,21	0,08311
528,41	0,08333
528,61	0,08346
528,81	0,08363
529,01	0,08384
529,21	0,0841
529,41	0,08437
529,609	0,08458
529,809	0,08494
530,009	0,08525
530,209	0,08565
530,409	0,08583
530,609	0,08632
530,808	0,08683
531,008	0,0873
531,208	0,08763
531,408	0,08785
531,608	0,08816
531,807	0,08833
532,007	0,08882
532,207	0,08924
532,406	0,08939
532,606	0,08985
532,806	0,09021
533,005	0,09033
533,205	0,09042
533,405	0,09073
533,604	0,09125
533,804	0,09172
534,003	0,09222
534,203	0,09232
534,403	0,09239
534,602	0,09267
534,802	0,09274
535,001	0,09297
535,201	0,09325
535,4	0,09324
535,6	0,09345
535,799	0,09349
535,998	0,09373
536,198	0,09388
536,397	0,09422
536,597	0,09452
536,796	0,09488
536,995	0,09527
537,195	0,09544
537,394	0,09572
537,594	0,09635
537,793	0,0967
537,992	0,09709
538,191	0,09722
538,391	0,09754
538,59	0,09779
538,789	0,09813
538,988	0,0982
539,188	0,09841
539,387	0,09868
539,586	0,09888
539,785	0,09896
539,984	0,09913
540,184	0,09913
540,383	0,09948
540,582	0,09959
540,781	0,09994
540,98	0,10025
541,179	0,10059
541,378	0,10087
541,577	0,101
541,776	0,10139
541,975	0,10185
542,174	0,10203
542,373	0,1024
542,572	0,10245
542,771	0,10283
542,97	0,10271
543,169	0,10268
543,368	0,10281
543,567	0,10292
543,766	0,10303
543,965	0,10308
544,164	0,10297
544,362	0,10325
544,561	0,10338
544,76	0,10369
544,959	0,10389
545,158	0,10438
545,356	0,10462
545,555	0,10486
545,754	0,10515
545,953	0,10539
546,151	0,1056
546,35	0,10584
546,549	0,10586
546,748	0,10609
546,946	0,10607
547,145	0,1062
547,344	0,10638
547,542	0,10656
547,741	0,10669
547,939	0,10666
548,138	0,10666
548,337	0,10686
548,535	0,10683
548,734	0,107
548,932	0,10701
549,131	0,10713
549,329	0,10718
549,528	0,10721
549,726	0,1073
549,925	0,10725
550,123	0,10737
550,322	0,10758
550,52	0,10761
550,718	0,10789
550,917	0,10799
551,115	0,10805
551,313	0,10831
551,512	0,10845
551,71	0,10854
551,908	0,10871
552,107	0,10886
552,305	0,10911
552,503	0,10926
552,702	0,1092
552,9	0,10915
553,098	0,10916
553,296	0,1094
553,495	0,10944
553,693	0,10946
553,891	0,10964
554,089	0,10969
554,287	0,10983
554,485	0,1098
554,683	0,10978
554,882	0,10994
555,08	0,1102
555,278	0,1103
555,476	0,11024
555,674	0,11032
555,872	0,11043
556,07	0,11046
556,268	0,11059
556,466	0,11068
556,664	0,11089
556,862	0,11109
557,06	0,11135
557,258	0,11156
557,456	0,11187
557,654	0,1121
557,851	0,11209
558,049	0,11218
558,247	0,11212
558,445	0,11233
558,643	0,11232
558,841	0,11236
559,039	0,11262
559,236	0,11275
559,434	0,11281
559,632	0,1129
559,83	0,11322
560,027	0,11346
560,225	0,1136
560,423	0,11382
560,62	0,11392
560,818	0,11412
561,016	0,11433
561,213	0,11442
561,411	0,1145
561,609	0,11466
561,806	0,11478
562,004	0,11468
562,202	0,11475
562,399	0,11506
562,597	0,11527
562,794	0,11546
562,992	0,11568
563,189	0,11591
563,387	0,11604
563,584	0,1162
563,782	0,11631
563,979	0,1165
564,177	0,11678
564,374	0,11718
564,571	0,11737
564,769	0,11748
564,966	0,11753
565,164	0,11792
565,361	0,118
565,558	0,1182
565,756	0,11851
565,953	0,11874
566,15	0,11891
566,347	0,11921
566,545	0,11942
566,742	0,11965
566,939	0,12003
567,136	0,12027
567,334	0,12032
567,531	0,12049
567,728	0,12076
567,925	0,12103
568,122	0,12131
568,319	0,12161
568,517	0,12175
568,714	0,1219
568,911	0,12217
569,108	0,12241
569,305	0,12274
569,502	0,12303
569,699	0,12348
569,896	0,12382
570,093	0,12402
570,29	0,12447
570,487	0,12472
570,684	0,12522
570,881	0,1256
571,078	0,12576
571,275	0,12604
571,472	0,12623
571,669	0,12643
571,866	0,12669
572,062	0,12699
572,259	0,12741
572,456	0,12739
572,653	0,12765
572,85	0,12771
573,047	0,12786
573,243	0,12824
573,44	0,12845
573,637	0,12883
573,834	0,12935
574,03	0,12967
574,227	0,12987
574,424	0,1302
574,62	0,13059
574,817	0,13104
575,014	0,13141
575,21	0,13175
575,407	0,13196
575,604	0,13236
575,8	0,13281
575,997	0,13305
576,193	0,13337
576,39	0,13373
576,586	0,13391
576,783	0,1343
576,979	0,13455
577,176	0,13499
577,372	0,13537
577,569	0,13571
577,765	0,136
577,962	0,13621
578,158	0,13674
578,355	0,13715
578,551	0,13756
578,747	0,13787
578,944	0,13816
579,14	0,1385
579,336	0,13871
579,533	0,13912
579,729	0,13951
579,925	0,13986
580,122	0,14019
580,318	0,14033
580,514	0,14059
580,71	0,14084
580,906	0,14131
581,103	0,1417
581,299	0,14194
581,495	0,14222
581,691	0,14241
581,887	0,14268
582,084	0,14295
582,28	0,14337
582,476	0,14364
582,672	0,14387
582,868	0,14416
583,064	0,14439
583,26	0,14466
583,456	0,1449
583,652	0,14499
583,848	0,14529
584,044	0,14548
584,24	0,14585
584,436	0,14616
584,632	0,14632
584,828	0,14654
585,024	0,14679
585,22	0,14688
585,416	0,14696
585,611	0,14721
585,807	0,14759
586,003	0,14782
586,199	0,14811
586,395	0,14828
586,591	0,14822
586,786	0,14842
586,982	0,1485
587,178	0,14866
587,374	0,14873
587,569	0,1489
587,765	0,149
587,961	0,14907
588,156	0,14912
588,352	0,1491
588,548	0,14911
588,743	0,14929
588,939	0,14915
589,135	0,14933
589,33	0,14922
589,526	0,14926
589,721	0,14932
589,917	0,14933
590,112	0,1493
590,308	0,14923
590,503	0,14928
590,699	0,14917
590,894	0,149
591,09	0,14914
591,285	0,14901
591,481	0,14899
591,676	0,14898
591,872	0,14864
592,067	0,14847
592,262	0,14848
592,458	0,1484
592,653	0,14823
592,848	0,14805
593,044	0,14793
593,239	0,14773
593,434	0,14748
593,629	0,14726
593,825	0,14698
594,02	0,14687
594,215	0,14673
594,41	0,14636
594,606	0,14599
594,801	0,14561
594,996	0,14544
595,191	0,14514
595,386	0,14481
595,581	0,14443
595,777	0,14425
595,972	0,14386
596,167	0,14345
596,362	0,14299
596,557	0,14273
596,752	0,14241
596,947	0,14212
597,142	0,14161
597,337	0,14115
597,532	0,14074
597,727	0,14042
597,922	0,13974
598,117	0,13932
598,312	0,13898
598,507	0,1385
598,701	0,13766
598,896	0,13715
599,091	0,13658
599,286	0,13609
599,481	0,13549
599,676	0,13489
599,87	0,13416
600,065	0,13356
600,26	0,13306
600,455	0,13237
600,65	0,13168
600,844	0,13117
601,039	0,13057
601,234	0,12998
601,428	0,12922
601,623	0,12861
601,818	0,12796
602,012	0,1275
602,207	0,12693
602,402	0,12617
602,596	0,12546
602,791	0,12496
602,985	0,12446
603,18	0,12371
603,374	0,12299
603,569	0,12235
603,763	0,12177
603,958	0,12109
604,152	0,12034
604,347	0,11959
604,541	0,11885
604,736	0,1182
604,93	0,11741
605,125	0,11653
605,319	0,11579
605,513	0,11496
605,708	0,11421
605,902	0,11331
606,096	0,11234
606,291	0,11158
606,485	0,1108
606,679	0,11011
606,874	0,10924
607,068	0,10846
607,262	0,10767
607,456	0,10697
607,65	0,10615
607,845	0,10536
608,039	0,10462
608,233	0,10387
608,427	0,10303
608,621	0,10228
608,815	0,10143
609,01	0,10079
609,204	0,09992
609,398	0,09933
609,592	0,09849
609,786	0,09781
609,98	0,0972
610,174	0,09641
610,368	0,09585
610,562	0,09495
610,756	0,09414
610,95	0,09347
611,144	0,09266
611,338	0,09185
611,532	0,09096
611,726	0,09018
611,919	0,08937
612,113	0,08842
612,307	0,08764
612,501	0,08673
612,695	0,08599
612,889	0,08526
613,082	0,08439
613,276	0,08365
613,47	0,08303
613,664	0,08224
613,857	0,08134
614,051	0,08069
614,245	0,07997
614,439	0,07926
614,632	0,07859
614,826	0,07788
615,02	0,07705
615,213	0,07644
615,407	0,07565
615,6	0,07484
615,794	0,07409
615,988	0,07344
616,181	0,07264
616,375	0,07191
616,568	0,07109
616,762	0,07044
616,955	0,06969
617,149	0,06905
617,342	0,06824
617,536	0,06759
617,729	0,06691
617,923	0,06631
618,116	0,06571
618,309	0,06502
618,503	0,06432
618,696	0,06374
618,889	0,06299
619,083	0,06228
619,276	0,06154
619,469	0,06087
619,663	0,06013
619,856	0,05948
620,049	0,05888
620,242	0,05833
620,436	0,05765
620,629	0,05716
620,822	0,05652
621,015	0,05587
621,209	0,05538
621,402	0,0548
621,595	0,05425
621,788	0,05375
621,981	0,05316
622,174	0,05251
622,367	0,05183
622,56	0,0513
622,753	0,05063
622,946	0,05006
623,139	0,04946
623,332	0,04893
623,525	0,04823
623,718	0,04766
623,911	0,04707
624,104	0,04654
624,297	0,04596
624,49	0,04553
624,683	0,04503
624,876	0,04442
625,069	0,04383
625,262	0,04355
625,454	0,04309
625,647	0,04279
625,84	0,04231
626,033	0,04189
626,226	0,04136
626,418	0,04091
626,611	0,04042
626,804	0,03986
626,997	0,03938
627,189	0,03901
627,382	0,0384
627,575	0,03784
627,767	0,03741
627,96	0,03699
628,153	0,03653
628,345	0,03612
628,538	0,03575
628,731	0,03536
628,923	0,03509
629,116	0,03482
629,308	0,03437
629,501	0,03394
629,693	0,03368
629,886	0,03326
630,078	0,0328
630,271	0,03246
630,463	0,03209
630,656	0,03165
630,848	0,03116
631,04	0,03074
631,233	0,03027
631,425	0,02993
631,617	0,02965
631,81	0,02919
632,002	0,0288
632,194	0,02857
632,387	0,02816
632,579	0,02786
632,771	0,0275
632,964	0,02725
633,156	0,02688
633,348	0,02668
633,54	0,02644
633,732	0,02609
633,925	0,02584
634,117	0,02579
634,309	0,02545
634,501	0,02518
634,693	0,02487
634,885	0,02464
635,077	0,02427
635,269	0,02399
635,462	0,02374
635,654	0,02341
635,846	0,02328
636,038	0,02298
636,23	0,02253
636,422	0,02228
636,614	0,022
636,806	0,02175
636,997	0,0216
637,189	0,02137
637,381	0,02111
637,573	0,02078
637,765	0,02062
637,957	0,02025
638,149	0,02011
638,341	0,02001
638,532	0,01976
638,724	0,01954
638,916	0,01941
639,108	0,0191
639,299	0,01904
639,491	0,01882
639,683	0,01879
639,875	0,01859
640,066	0,01845
640,258	0,01815
640,45	0,01786
640,641	0,01779
640,833	0,01762
641,025	0,01743
641,216	0,01726
641,408	0,0169
641,599	0,01683
641,791	0,01657
641,982	0,01627
642,174	0,0161
642,366	0,016
642,557	0,01582
642,748	0,01544
642,94	0,01525
643,131	0,015
643,323	0,01481
643,514	0,01474
643,706	0,01459
643,897	0,01442
644,088	0,01432
644,28	0,01418
644,471	0,01398
644,662	0,01381
644,854	0,01379
645,045	0,01372
645,236	0,01359
645,428	0,01349
645,619	0,0133
645,81	0,01322
646,001	0,01291
646,193	0,0128
646,384	0,01256
646,575	0,01247
646,766	0,01242
646,957	0,01217
647,148	0,01203
647,339	0,01193
647,531	0,01178
647,722	0,01164
647,913	0,0114
648,104	0,01141
648,295	0,01132
648,486	0,01125
648,677	0,01104
648,868	0,01091
649,059	0,0109
649,25	0,01083
649,441	0,01076
649,632	0,01057
649,823	0,01054
650,013	0,01043
650,204	0,01028
650,395	0,01011
650,586	0,01008
650,777	0,01014
650,968	0,00995
651,159	0,00983
651,349	0,00966
651,54	0,00945
651,731	0,00938
651,922	0,00929
652,112	0,00923
652,303	0,00922
652,494	0,00917
652,684	0,00892
652,875	0,0087
653,066	0,00867
653,256	0,00859
653,447	0,00844
653,638	0,00841
653,828	0,00832
654,019	0,00819
654,209	0,00815
654,4	0,0081
654,59	0,00805
654,781	0,00817
654,972	0,00809
655,162	0,00804
655,352	0,00793
655,543	0,00784
655,733	0,00784
655,924	0,00794
656,114	0,00782
656,305	0,0077
656,495	0,00759
656,685	0,00747
656,876	0,0074
657,066	0,00737
657,256	0,0074
657,447	0,00738
657,637	0,00744
657,827	0,00728
658,017	0,00714
658,208	0,0071
658,398	0,00695
658,588	0,00681
658,778	0,00683
658,968	0,00661
659,159	0,00649
659,349	0,00627
659,539	0,00618
659,729	0,00611
659,919	0,00616
660,109	0,00611
660,299	0,00616
660,489	0,00633
660,679	0,0063
660,869	0,00623
661,059	0,0063
661,249	0,00622
661,439	0,00618
661,629	0,00608
661,819	0,00607
662,009	0,00604
662,199	0,006
662,389	0,00591
662,579	0,00568
662,769	0,00567
662,959	0,0056
663,149	0,00558
663,338	0,00558
663,528	0,00559
663,718	0,00556
663,908	0,00542
664,097	0,00529
664,287	0,00522
664,477	0,00516
664,667	0,00518
664,856	0,00515
665,046	0,00512
665,236	0,00504
665,425	0,00505
665,615	0,00499
665,805	0,00504
665,994	0,00511
666,184	0,00514
666,373	0,00509
666,563	0,00513
666,753	0,00524
666,942	0,0052
667,132	0,0051
667,321	0,00511
667,511	0,00512
667,7	0,00516
667,889	0,0051
668,079	0,00506
668,268	0,00504
668,458	0,005
668,647	0,00492
668,836	0,00472
669,026	0,00463
669,215	0,00456
669,404	0,00458
669,594	0,00449
669,783	0,00442
669,972	0,0044
670,162	0,00436
670,351	0,00431
670,54	0,00431
670,729	0,00417
670,919	0,00415
671,108	0,00416
671,297	0,00419
671,486	0,00406
671,675	0,0041
671,864	0,00411
672,053	0,00411
672,243	0,0041
672,432	0,00399
672,621	0,00391
672,81	0,00394
672,999	0,00397
673,188	0,00411
673,377	0,00407
673,566	0,00402
673,755	0,00397
673,944	0,00386
674,133	0,00376
674,322	0,00373
674,51	0,00379
674,699	0,00383
674,888	0,0038
675,077	0,00373
675,266	0,00356
675,455	0,00358
675,644	0,0036
675,832	0,00361
676,021	0,00361
676,21	0,00372
676,399	0,00362
676,587	0,00357
676,776	0,00355
676,965	0,00353
677,153	0,00358
677,342	0,00352
677,531	0,00343
677,719	0,00343
677,908	0,0034
678,097	0,00343
678,285	0,00335
678,474	0,00341
678,662	0,00343
678,851	0,00338
679,039	0,0033
679,228	0,00326
679,416	0,00334
679,605	0,00338
679,793	0,00339
679,982	0,00337
680,17	0,00325
680,359	0,00329
680,547	0,00325
680,736	0,00323
680,924	0,00332
681,112	0,00338
681,301	0,00344
681,489	0,00343
681,677	0,00341
681,866	0,00333
682,054	0,00326
682,242	0,00332
682,43	0,00327
682,619	0,00325
682,807	0,00322
682,995	0,00309
683,183	0,00303
683,371	0,00302
683,559	0,00302
683,748	0,00294
683,936	0,003
684,124	0,00301
684,312	0,00299
684,5	0,00283
684,688	0,00286
684,876	0,00279
685,064	0,00277
685,252	0,00275
685,44	0,00262
685,628	0,00254
685,816	0,00257
686,004	0,00253
686,192	0,00246
686,38	0,00238
686,568	0,00245
686,756	0,00237
686,944	0,00242
687,131	0,0025
687,319	0,00256
687,507	0,00253
687,695	0,00246
687,883	0,00247
688,07	0,00243
688,258	0,00256
688,446	0,00257
688,634	0,00262
688,821	0,00267
689,009	0,00264
689,197	0,00264
689,384	0,00262
689,572	0,00262
689,76	0,00264
689,947	0,00264
690,135	0,00266
690,323	0,00265
690,51	0,0027
690,698	0,00265
690,885	0,00269
691,073	0,00263
691,26	0,00255
691,448	0,00257
691,635	0,00257
691,823	0,0026
692,01	0,00257
692,197	0,00253
692,385	0,00261
692,572	0,00257
692,76	0,00259
692,947	0,00248
693,134	0,00253
693,322	0,00251
693,509	0,00243
693,696	0,00237
693,884	0,00233
694,071	0,00232
694,258	0,00231
694,445	0,00221
694,633	0,00215
694,82	0,00208
695,007	0,00214
695,194	0,00219
695,381	0,00223
695,568	0,00223
695,756	0,00228
695,943	0,00226
696,13	0,00222
696,317	0,00236
696,504	0,00232
696,691	0,00234
696,878	0,00232
697,065	0,00221
697,252	0,00225
697,439	0,00227
697,626	0,00224
697,813	0,00224
698	0,00219
698,187	0,00216
698,374	0,00212
698,561	0,00212
698,747	0,00215
698,934	0,00216
699,121	0,00221
699,308	0,00204
699,495	0,00196
699,682	0,00208
699,868	0,00195
700,055	0,00194
700,242	0,00198
700,429	0,00183
700,615	0,00174
700,802	0,00164
700,989	0,00165
701,175	0,00161
701,362	0,00162
701,549	0,00154
701,735	0,00144
701,922	0,00155
702,108	0,00163
702,295	0,00161
702,482	0,00161
702,668	0,00171
702,855	0,00174
703,041	0,00179
703,228	0,00186
703,414	0,00185
703,601	0,00193
703,787	0,00199
703,973	0,00196
704,16	0,00179
704,346	0,00183
704,533	0,0018
704,719	0,00176
704,905	0,00166
705,092	0,00161
705,278	0,00163
705,464	0,00169
705,65	0,00171
705,837	0,00161
706,023	0,00162
706,209	0,00174
706,395	0,00176
706,582	0,00177
706,768	0,00179
706,954	0,00198
707,14	0,00198
707,326	0,00195
707,512	0,0019
707,698	0,00185
707,885	0,00181
708,071	0,00184
708,257	0,0018
708,443	0,00182
708,629	0,00183
708,815	0,00182
709,001	0,00173
709,187	0,00165
709,373	0,00163
709,559	0,00156
709,745	0,00158
709,93	0,00155
710,116	0,00152
710,302	0,00153
710,488	0,00149
710,674	0,00154
710,86	0,00144
711,046	0,00142
711,231	0,00147
711,417	0,00144
711,603	0,00151
711,789	0,00147
711,974	0,00163
712,16	0,00154
712,346	0,00148
712,532	0,00142
712,717	0,00129
712,903	0,00128
713,089	0,00135
713,274	0,00134
713,46	0,0013
713,645	0,00131
713,831	0,00133
714,016	0,00126
714,202	0,00143
714,388	0,00163
714,573	0,00161
714,759	0,0017
714,944	0,00164
715,129	0,00159
715,315	0,00167
715,5	0,00167
715,686	0,00159
715,871	0,00159
716,057	0,00153
716,242	0,00145
716,427	0,00133
716,613	0,00138
716,798	0,00129
716,983	0,00141
717,168	0,0014
717,354	0,00143
717,539	0,00144
717,724	0,00147
717,909	0,00154
718,095	0,00159
718,28	0,00158
718,465	0,00155
718,65	0,00157
718,835	0,00159
719,02	0,00157
719,206	0,0016
719,391	0,00153
719,576	0,00141
719,761	0,00145
719,946	0,00134
720,131	0,00135
720,316	0,00131
720,501	0,00127
720,686	0,00126
720,871	0,00135
721,056	0,00136
721,241	0,00129
721,426	0,00127
721,61	0,0014
721,795	0,0014
721,98	0,00143
722,165	0,00141
722,35	0,00149
722,535	0,00147
722,719	0,00138
722,904	0,00128
723,089	0,00125
723,274	0,00126
723,458	0,00118
723,643	0,00116
723,828	0,00113
724,013	0,00111
724,197	0,00111
724,382	0,00107
724,567	0,00116
724,751	0,00127
724,936	0,00128
725,12	0,00123
725,305	0,00132
725,489	0,00136
725,674	0,00133
725,859	0,0014
726,043	0,00132
726,228	0,00143
726,412	0,00139
726,596	0,00134
726,781	0,00124
726,965	0,00136
727,15	0,00157
727,334	0,00145
727,518	0,00141
727,703	0,00149
727,887	0,00145
728,072	0,00158
728,256	0,00147
728,44	0,00147
728,624	0,00158
728,809	0,00154
728,993	0,00146
729,177	0,00135
729,361	0,00139
729,546	0,0014
729,73	0,00139
729,914	0,00126
730,098	0,00122
730,282	0,0012
730,466	0,00124
730,65	0,00117
730,834	0,00122
731,019	0,00117
731,203	0,00113
731,387	0,00114
731,571	0,00112
731,755	0,00111
731,939	0,00116
732,123	0,00104
732,306	0,00106
732,49	0,00108
732,674	0,0011
732,858	0,00116
733,042	0,00113
733,226	0,00126
733,41	0,00124
733,594	0,00131
733,778	0,00123
733,961	0,00131
734,145	0,00138
734,329	0,00139
734,513	0,00133
734,696	0,00131
734,88	0,00129
735,064	0,00134
735,247	0,00119
735,431	0,00126
735,615	0,0012
735,798	0,00129
735,982	0,00125
736,166	0,00129
736,349	0,00126
736,533	0,00129
736,716	0,00129
736,9	0,00111
737,083	0,00111
737,267	0,00114
737,45	0,00106
737,634	0,00115
737,817	0,00098
738,001	0,001
738,184	0,00095
738,368	0,00096
738,551	0,0009
738,734	0,00091
738,918	0,00106
739,101	0,00113
739,284	0,00101
739,468	0,00105
739,651	0,0011
739,834	0,0012
740,018	0,00108
740,201	0,00105
740,384	0,00107
740,567	0,00111
740,75	0,00108
740,934	0,00101
741,117	0,00087
741,3	0,00099
741,483	0,00095
741,666	0,0008
741,849	0,00084
742,032	0,00094
742,215	0,001
742,399	0,00102
742,582	0,00099
742,765	0,00104
742,948	0,00114
743,131	0,00121
743,314	0,00113
743,496	0,00113
743,679	0,00128
743,862	0,00122
744,045	0,00127
744,228	0,00124
744,411	0,00115
744,594	0,00126
744,777	0,00123
744,959	0,00127
745,142	0,00137
745,325	0,00145
745,508	0,00143
745,691	0,00144
745,873	0,00145
746,056	0,00135
746,239	0,00139
746,421	0,00146
746,604	0,00131
746,787	0,00138
746,969	0,0013
747,152	0,00113
747,335	0,00105
747,517	0,00103
747,7	0,00095
747,882	0,00097
748,065	0,00097
748,247	0,00096
748,43	0,00079
748,612	0,00083
748,795	0,00074
748,977	0,00068
749,16	0,00072
749,342	0,00087
749,524	0,00088
749,707	0,00083
749,889	0,00087
750,072	0,0009
750,254	0,00091
750,436	0,00098
750,619	0,00099
750,801	0,00091
750,983	0,00095
751,165	0,00092
751,348	0,0009
751,53	0,0009
751,712	0,00094
751,894	0,0009
752,076	0,00098
752,259	0,00094
752,441	0,00108
752,623	0,00103
752,805	0,00107
752,987	0,00099
753,169	0,00109
753,351	0,00099
753,533	0,0009
753,715	0,0009
753,897	0,00087
754,079	0,00089
754,261	0,00096
754,443	0,00087
754,625	0,00089
754,807	0,00092
754,989	0,00104
755,171	0,00095
755,353	0,00102
755,534	0,00113
755,716	0,00107
755,898	0,00109
756,08	0,00096
756,262	0,00092
756,443	0,00085
756,625	0,00088
756,807	0,00079
756,989	0,00076
757,17	0,0008
757,352	0,00071
757,534	0,00076
757,715	0,00073
757,897	0,00077
758,079	0,00093
758,26	0,00091
758,442	0,00099
758,623	0,00094
758,805	0,00099
758,987	0,00097
759,168	0,00091
759,35	0,00095
759,531	0,00092
759,713	0,00087
759,894	0,00073
760,075	0,00058
760,257	0,00054
760,438	0,00049
760,62	0,00051
760,801	0,00062
760,982	0,0006
761,164	0,00058
761,345	0,00063
761,526	0,00057
761,708	0,00064
761,889	0,00068
762,07	0,00064
762,251	0,00075
762,433	0,00083
762,614	0,00076
762,795	0,00076
762,976	0,00081
763,157	0,00092
763,338	0,00085
763,52	0,00084
763,701	0,0008
763,882	0,0008
764,063	0,00089
764,244	0,00084
764,425	0,00081
764,606	0,00093
764,787	0,00081
764,968	0,00074
765,149	0,00065
765,33	0,00069
765,511	0,00071
765,692	0,00069
765,873	0,00064
766,053	0,00053
766,234	0,00052
766,415	0,00054
766,596	0,00038
766,777	0,0004
766,958	0,00033
767,138	0,00042
767,319	0,00035
767,5	0,00036
767,681	0,00028
767,861	0,00042
768,042	0,00039
768,223	0,00038
768,403	0,00025
768,584	0,00037
768,765	0,00032
768,945	0,00031
769,126	0,00025
769,307	0,00021
769,487	0,00015
769,668	0,00029
769,848	0,00023
770,029	0,00035
770,209	0,00027
770,39	0,00035
770,57	0,00038
770,751	0,00042
770,931	0,00052
771,111	0,00039
771,292	0,00041
771,472	0,00049
771,653	0,00044
771,833	0,00045
772,013	0,00042
772,194	0,00048
772,374	0,00045
772,554	0,00034
772,734	0,00037
772,915	0,00041
773,095	0,00052
773,275	0,00057
773,455	0,00057
773,635	0,00042
773,816	0,00046
773,996	0,00053
774,176	0,00061
774,356	0,00059
774,536	0,00068
774,716	0,00058
774,896	0,00048
775,076	0,00042
775,256	0,00037
775,436	0,00038
775,616	0,00061
775,796	0,00061
775,976	0,00058
776,156	0,0005
776,336	0,0005
776,516	0,00045
776,696	0,00043
776,876	0,00053
777,056	0,00057
777,235	0,00058
777,415	0,00061
777,595	0,00044
777,775	0,00039
777,955	0,00023
778,134	0,00015
778,314	0,00018
778,494	0,00014
778,674	0,00027
778,853	0,00019
779,033	0,00015
779,213	0,00015
779,392	0,0002
779,572	0,00026
779,751	0,00011
779,931	0,00028
780,111	0,00035
780,29	0,00034
780,47	0,00043
780,649	0,00031
780,829	0,00033
781,008	0,00039
781,188	0,00045
781,367	0,00036
781,546	0,00032
781,726	0,0004
781,905	0,00035
782,085	0,00029
782,264	0,00026
782,443	0,00026
782,623	0,00017
782,802	0,00018
782,981	0,00014
783,161	0,00009
783,34	0,00019
783,519	0,00029
783,698	0,00036
783,878	0,00038
784,057	0,00039
784,236	0,00049
784,415	0,00056
784,594	0,00079
784,773	0,00079
784,952	0,00082
785,132	0,00074
785,311	0,00071
785,49	0,00057
785,669	0,00044
785,848	0,00046
786,027	0,00048
786,206	0,00047
786,385	0,00032
786,564	0,0002
786,743	0,00024
786,922	0,00028
787,1	0,00035
787,279	0,00018
787,458	0,00025
787,637	0,00041
787,816	0,00039
787,995	0,00036
788,174	0,00035
788,352	0,0004
788,531	0,00044
788,71	0,00032
788,889	0,00026
789,067	0,00023
789,246	0,00025
789,425	0,00026
789,603	0,00022
789,782	0,00014
789,961	0,00019
790,139	0,00018
790,318	0,00016
790,496	0,00014
790,675	0,00037
790,853	0,00041
791,032	0,00039
791,211	0,00049
791,389	0,00047
791,568	0,00049
791,746	0,00064
791,924	0,0006
792,103	0,00058
792,281	0,00051
792,46	0,00049
792,638	0,00026
792,816	0,00031
792,995	0,00038
793,173	0,00036
793,351	0,00045
793,53	0,00035
793,708	0,00028
793,886	0,00035
794,064	0,00026
794,243	0,00047
794,421	0,00055
794,599	0,0006
794,777	0,00048
794,955	0,00042
795,133	0,00036
795,312	0,00022
795,49	0,00019
795,668	0,00019
795,846	0,00011
796,024	0,00025
796,202	0,00009
796,38	0
796,558	-0,00002
796,736	-0,00002
796,914	-0
797,092	-0,00005
797,27	-0,00006
797,448	0,00007
797,626	-0,00008
797,803	-0,00015
797,981	-0,00029
798,159	-0,00025
798,337	-0,00016
798,515	-0,00004
798,693	-0,00002
798,87	-0,00002
799,048	0,00004
799,226	0,00004
799,404	-0,00011
799,581	-0,00002
799,759	0
799,937	0,00003
800,114	0,00005
800,292	-0,00013
800,469	-0,00017
800,647	-0,00029
800,825	-0,00031
801,002	-0,00037
801,18	-0,00032
801,357	-0,00027
801,535	-0,00013
801,712	-0,00011
801,89	-0,0001
802,067	0,00002
802,245	0,00006
802,422	-0,00013
802,6	-0,00003
802,777	-0,00004
802,954	0,00003
803,132	0,00013
803,309	0,00021
803,486	0,00009
803,664	0,00016
803,841	0,00023
804,018	0,0001
804,195	0,00015
804,373	0,00023
804,55	0,00026
804,727	0,00021
804,904	0,00023
805,081	0,00013
805,259	0,00018
805,436	0,00005
805,613	-0,00002
805,79	-0,00011
805,967	-0,0002
806,144	-0,00022
806,321	-0,00017
806,498	-0,00002
806,675	0,00005
806,852	-0,00009
807,029	0,00001
807,206	-0,00002
807,383	0,00008
807,56	0,00016
807,737	0,00015
807,914	0,00029
808,091	0,00041
808,268	0,00054
808,444	0,00032
808,621	0,00032
808,798	0,00029
808,975	0,00028
809,152	0,00011
809,328	0,00013
809,505	0,00013
809,682	0,00013
809,858	0,00008
810,035	-0,00001
810,212	-0,00032
810,388	-0,00027
810,565	-0,00012
810,742	-0,00002
810,918	-0,00011
811,095	-0,0001
811,271	-0,00007
811,448	-0,00009
811,625	-0,00001
811,801	-0,00014
811,978	-0,00019
812,154	-0,00009
812,33	0,00004
812,507	0,00001
812,683	0,00006
812,86	-0,00002
813,036	0,00014
813,212	0,00026
813,389	0,00028
813,565	0,00021
813,741	0,00039
813,918	0,00043
814,094	0,00066
814,27	0,00057
814,447	0,00052
814,623	0,00055
814,799	0,00067
814,975	0,0007
815,151	0,00051
815,328	0,00043
815,504	0,00046
815,68	0,00042
815,856	0,00061
816,032	0,00059
816,208	0,00058
816,384	0,00046
816,56	0,00052
816,736	0,00044
816,912	0,00042
817,088	0,00045
817,264	0,00053
817,44	0,00041
817,616	0,00036
817,792	0,00008
817,968	0,00013
818,144	0,00022
818,32	0,00039
818,495	0,00031
818,671	0,00029
818,847	0,00003
819,023	0,00025
819,199	0,00024
819,374	0,00035
819,55	0,0004
819,726	0,00057
819,902	0,00052
820,077	0,00041
820,253	0,00035
820,429	0,00024
820,604	0,00037
820,78	0,00055
820,956	0,00038
821,131	0,00027
821,307	0,00022
821,482	0,0003
821,658	0,00026
821,833	-0
822,009	-0,00021
822,184	-0,00037
822,36	-0,00042
822,535	-0,00048
822,711	-0,00053
822,886	-0,00058
823,061	-0,0006
823,237	-0,00054
823,412	-0,00053
823,587	-0,00056
823,763	-0,00053
823,938	-0,00046
824,113	-0,00034
824,289	-0,00027
824,464	-0,00027
824,639	-0,0002
824,814	-0,00022
824,99	-0,00005
825,165	-0,00009
825,34	-0,00017
825,515	-0,00002
825,69	0,0001
825,865	0,00019
826,04	0,00031
826,215	0,00051
826,39	0,00076
826,566	0,00086
826,741	0,00102
826,916	0,00101
827,091	0,00112
827,265	0,0012
827,44	0,00104
827,615	0,00111
827,79	0,00115
827,965	0,00114
828,14	0,00091
828,315	0,00082
828,49	0,00064
828,665	0,00044
828,839	0,00024
829,014	0,00013
829,189	-0,00006
829,364	-0,00002
829,538	0,00008
829,713	0,00017
829,888	0,00016
830,063	0,00034
830,237	0,00016
830,412	0,00025
830,587	0,00043
830,761	0,00075
830,936	0,00069
831,11	0,00076
831,285	0,00067
831,459	0,00056
831,634	0,0004
831,809	0,00052
831,983	0,00045
832,157	0,00039
832,332	0,0003
832,506	0,00017
832,681	-0,00023
832,855	-0,00019
833,03	-0,0003
833,204	-0,00038
833,378	-0,00041
833,553	-0,0004
833,727	-0,00049
833,901	-0,00035
834,076	-0,0001
834,25	-0,00003
834,424	0,0001
834,598	0,00048
834,773	0,00056
834,947	0,00074
835,121	0,00091
835,295	0,00087
835,469	0,00082
835,643	0,00059
835,817	0,00046
835,991	0,00018
836,166	0,00013
836,34	0,00005
836,514	-0,00015
836,688	-0,00012
836,862	-0,00015
837,036	-0,00018
837,21	-0,00011
837,384	0,00003
837,557	0,00019
837,731	0,00009
837,905	0,00019
838,079	0,00014
838,253	0,00004
838,427	-0,00006
838,601	-0,00009
838,774	-0,00018
838,948	-0,00017
839,122	-0,00015
839,296	-0,00005
839,469	0,00012
839,643	0,0001
839,817	-0,00004
839,991	0,00008
840,164	0,00009
840,338	0,00002
840,512	-0
840,685	0,00013
840,859	0,00023
841,032	0,00015
841,206	0,00009
841,379	-0,00004
841,553	0,0002
841,726	0,00045
841,9	0,00047
842,073	0,00056
842,247	0,00076
842,42	0,00072
842,594	0,0007
842,767	0,00054
842,94	0,00067
843,114	0,00071
843,287	0,00069
843,46	0,00056
843,634	0,00035
843,807	0,00022
843,98	0,00033
844,154	0,00012
844,327	0,00011
844,5	0,00006
844,673	0,00012
844,846	-0,00013
845,02	-0,00004
845,193	-0,00036
845,366	-0,00048
845,539	-0,00046
845,712	-0,00031
845,885	-0,00063
846,058	-0,0005
846,231	-0,00044
846,404	-0,00047
846,577	-0,00045
846,75	-0,00029
846,923	-0,00045
847,096	-0,00023
847,269	-0,00007
847,442	0,00003
847,615	-0,00003
847,788	0,00001
847,961	-0,00001
848,133	-0,00002
848,306	0,00008
848,479	0,00006
848,652	0,00004
848,825	-0,00004
848,997	0,00011
849,17	0,00007
849,343	-0,00002
849,515	-0,00005
849,688	0,00001
849,861	0,00021
850,033	0,00043
850,206	0,00041
850,379	0,00039
850,551	0,00057
850,724	0,00068
850,896	0,0005
851,069	0,00058
851,241	0,00076
851,414	0,00089
851,586	0,00099
851,759	0,00085
851,931	0,00072
852,104	0,00059
852,276	0,0006
852,449	0,00038
852,621	0,00026
852,793	0,00015
852,966	0,00017
853,138	0,00019
853,31	0,00009
853,483	0,00012
853,655	0,00019
853,827	0,00021
853,999	0,00031
854,172	0,00041
854,344	0,00055
854,516	0,00078
854,688	0,00104
854,86	0,00083
855,032	0,00066
855,204	0,00063
855,377	0,00066
855,549	0,00058
855,721	0,00043
855,893	0,00039
856,065	0,00021
856,237	0,00003
856,409	-0,00015
856,581	-0,00021
856,753	0,00008
856,924	0,00025
857,096	0,00033
857,268	0,00046
857,44	0,00047
857,612	0,00066
857,784	0,00049
857,956	0,00069
858,127	0,00073
858,299	0,00056
858,471	0,00052
858,643	0,0002
858,814	0,00012
858,986	0,00017
859,158	0,0001
859,33	0,00018
859,501	-0,00004
859,673	0,0002
859,844	0,00027
860,016	0,00036
860,188	0,00048
860,359	0,00058
860,531	0,00057
860,702	0,00048
860,874	0,00028
861,045	0,00016
861,217	-0,00006
861,388	0,00007
861,56	0,00013
861,731	-0,00021
861,902	-0,00021
862,074	-0,00018
862,245	-0,00008
862,417	0,00003
862,588	0,00021
862,759	0,00037
862,931	0,00032
863,102	0,00053
863,273	0,00052
863,444	0,00028
863,616	0,00054
863,787	0,00032
863,958	0,00035
864,129	0,00015
864,3	0,00011
864,471	-0,00005
864,642	0,00007
864,814	-0,00001
864,985	-0,00024
865,156	-0,00043
865,327	-0,00053
865,498	-0,00045
865,669	-0,00042
865,84	-0,0003
866,011	-0,0002
866,182	-0,00017
866,353	-0,00009
866,523	-0,00044
866,694	-0,00021
866,865	-0,00005
867,036	0,0001
867,207	0,00013
867,378	-0,00016
867,549	-0,0001
867,719	-0,0003
867,89	-0,00041
868,061	-0,00035
868,232	-0,00051
868,402	-0,0004
868,573	-0,00097
868,744	-0,00068
868,914	-0,00065
869,085	-0,00068
869,256	-0,0006
869,426	-0,00076
869,597	-0,00068
869,767	-0,00077
869,938	-0,00058
870,108	-0,00031
870,279	-0,00031
870,449	0
870,62	-0,00045
870,79	-0,00068
870,961	-0,0004
871,131	-0,00056
871,302	-0,00016
871,472	-0,00011
871,642	-0,00006
871,813	-0,00019
871,983	-0,00051
872,153	-0,00057
872,324	-0,00064
872,494	-0,00049
872,664	-0,00035
872,835	-0,00045
873,005	-0,00002
873,175	-0,00043
873,345	-0,00019
873,515	-0,00016
873,685	-0,0003
873,856	0,00002
874,026	0,00008
874,196	0,00043
874,366	0,00023
874,536	0,00014
874,706	0,00002
874,876	-0,00043
875,046	-0,00038
875,216	-0,00074
875,386	-0,00065
875,556	-0,00029
875,726	-0,00062
875,896	-0,00069
876,066	-0,00094
876,236	-0,00111
876,405	-0,00099
876,575	-0,00089
876,745	-0,00094
876,915	-0,00059
877,085	-0,0005
877,254	-0,00072
877,424	-0,00085
877,594	-0,00076
877,764	-0,00063
877,933	-0,00047
878,103	-0,00011
878,273	-0,00001
878,442	-0
878,612	0,0001
878,781	-0,00016
878,951	-0,00009
879,121	-0,00021
879,29	-0,00036
879,46	-0,00021
879,629	-0,00014
879,799	-0,00027
879,968	0,00005
880,138	0,00028
880,307	0,00032
880,476	0,00061
880,646	0,00035
880,815	0,00022
880,985	0,00063
881,154	0,00045
881,323	0,00044
881,493	0,0003
881,662	-0,00001
881,831	-0,00008
882	-0,00045
882,17	-0,00024
882,339	-0,00049
882,508	-0,00031
882,677	-0,00042
882,846	-0,00027
883,016	-0,00022
883,185	-0,00028
883,354	-0,00018
883,523	0,00009
883,692	0,00003
883,861	0,00026
884,03	-0,00027
884,199	0,00001
884,368	0,00037
884,537	0,00028
884,706	-0,00002
884,875	-0,00005
885,044	0,0001
885,213	0,00027
885,382	0,00042
885,55	0,00042
885,719	0,00006
885,888	0,00021
886,057	-0,00047
886,226	-0,00085
886,395	-0,00058
886,563	-0,00061
886,732	-0,00049
886,901	-0,00051
887,069	-0,00068
887,238	-0,00097
887,407	-0,00114
887,575	-0,00092
887,744	-0,00048
887,913	0,00005
888,081	0,00035
888,25	0,0005
888,418	0,00047
888,587	0,00058
888,755	0,00033
888,924	0,00046
889,092	0,00091
889,261	0,00099
889,429	0,00094
889,598	0,00069
889,766	0,00068
889,935	0,00049
890,103	0,00003
890,271	-0,00011
890,44	-0,00043
890,608	-0,0004
890,776	-0,00058
890,944	-0,00066
891,113	-0,00079
891,281	-0,00107
891,449	-0,00137
891,617	-0,00149
891,786	-0,00154
891,954	-0,00126
892,122	-0,00076
892,29	-0,00053
892,458	-0,00056
892,626	-0,00072
892,794	-0,00089
892,962	-0,00089
893,13	-0,00057
893,298	-0,00021
893,466	-0,00007
