Data from Chemiepractica_Absorbance__7__11-32-53-184.txt Node

Date: Mon Dec 09 11:32:53 CET 2024
User: r0948668
Spectrometer: USB4F07138
Trigger mode: 4
Integration Time (sec): 6,000000E-3
Scans to average: 20
Electric dark correction enabled: true
Nonlinearity correction enabled: false
Boxcar width: 5
XAxis mode: Wavelengths
Number of Pixels in Spectrum: 3648
>>>>>Begin Spectral Data<<<<<
176,779	-0
176,999	-1,03249
177,218	-0,12029
177,438	0,06279
177,658	-0,37666
177,878	0,23264
178,097	0,32791
178,317	0,15442
178,537	0,13193
178,757	0,25573
178,976	0,548
179,196	-0,23477
179,416	-0
179,635	-0,18561
179,855	-0,00898
180,075	0,05593
180,294	-0,03548
180,514	-0,05554
180,734	0,00258
180,953	0,02643
181,173	0,02378
181,392	0,00711
181,612	0,02607
181,832	0,03544
182,051	0,02173
182,271	0,00452
182,49	-0,00729
182,71	-0,00452
182,929	0,00681
183,149	-0,00338
183,368	-0,00091
183,588	-0,00822
183,807	0,00405
184,027	0,01494
184,246	0,02029
184,466	0,01836
184,685	0,03258
184,905	0,03494
185,124	0,04384
185,344	0,03998
185,563	0,0453
185,782	0,0359
186,002	0,03575
186,221	0,02393
186,44	0,00848
186,66	0,00244
186,879	0,03238
187,099	0,0255
187,318	0,02726
187,537	0,02146
187,756	0,02733
187,976	0,01763
188,195	0,02948
188,414	0,03527
188,634	0,04049
188,853	0,03563
189,072	0,03444
189,291	0,01383
189,511	0,0289
189,73	0,04029
189,949	0,04195
190,168	0,03413
190,387	0,04703
190,607	0,0387
190,826	0,04117
191,045	0,03522
191,264	0,03725
191,483	0,03726
191,702	0,0414
191,921	0,03515
192,141	0,02816
192,36	0,02694
192,579	0,0398
192,798	0,04367
193,017	0,04303
193,236	0,04136
193,455	0,04235
193,674	0,0495
193,893	0,05731
194,112	0,06251
194,331	0,05737
194,55	0,05884
194,769	0,05318
194,988	0,04239
195,207	0,03911
195,426	0,03513
195,645	0,03842
195,864	0,04184
196,083	0,03053
196,302	0,02173
196,521	0,02044
196,739	0,00969
196,958	0,00845
197,177	0,01741
197,396	0,02448
197,615	0,01314
197,834	0,0027
198,053	-0,00497
198,271	-0,01165
198,49	-0,00105
198,709	0,00776
198,928	0,0151
199,147	0,02566
199,365	0,02628
199,584	0,03062
199,803	0,02393
200,022	0,03597
200,24	0,04392
200,459	0,04956
200,678	0,05434
200,897	0,05243
201,115	0,0532
201,334	0,05693
201,553	0,04558
201,771	0,03614
201,99	0,01943
202,209	0,03328
202,427	0,02308
202,646	0,03607
202,864	0,02405
203,083	0,01235
203,302	0,02457
203,52	0,03455
203,739	0,02651
203,957	0,04057
204,176	0,05062
204,394	0,0704
204,613	0,056
204,831	0,06715
205,05	0,06391
205,268	0,07539
205,487	0,08233
205,705	0,06535
205,924	0,05341
206,142	0,05727
206,361	0,05703
206,579	0,03603
206,798	0,02655
207,016	0,02735
207,234	0,0195
207,453	0,02365
207,671	0,03558
207,89	0,0425
208,108	0,04818
208,326	0,03328
208,545	0,01633
208,763	0,02057
208,981	0,03958
209,2	0,02687
209,418	0,02507
209,636	0,01362
209,855	0,01027
210,073	-0,01095
210,291	-0,02422
210,509	-0,02933
210,728	-0,02928
210,946	-0,01189
211,164	-0,01766
211,382	-0,0114
211,6	0,00961
211,819	0,01341
212,037	0,02182
212,255	0,01601
212,473	0,02326
212,691	0,0337
212,909	0,03941
213,128	0,04161
213,346	0,03883
213,564	0,04613
213,782	0,04796
214	0,05169
214,218	0,04675
214,436	0,05946
214,654	0,05461
214,872	0,05196
215,09	0,04148
215,308	0,0479
215,526	0,056
215,744	0,05119
215,962	0,0359
216,18	0,0148
216,398	0,00203
216,616	-0,00352
216,834	-0,02028
217,052	-0,01127
217,27	-0,02076
217,488	-0,01046
217,706	-0,00344
217,924	0,0028
218,142	0,00062
218,36	0,02169
218,578	0,03261
218,795	0,02482
219,013	0,03582
219,231	0,04164
219,449	0,03346
219,667	0,02956
219,885	0,02377
220,102	0,02815
220,32	0,02285
220,538	0,02773
220,756	0,00544
220,973	0,01214
221,191	0,02027
221,409	0,02072
221,627	0,01978
221,844	0,01442
222,062	0,0237
222,28	0,01835
222,497	-0,00045
222,715	0,00725
222,933	-0,00004
223,15	0,00631
223,368	0,00347
223,586	0,01764
223,803	0,02267
224,021	0,02491
224,239	0,03404
224,456	0,04255
224,674	0,04863
224,891	0,06188
225,109	0,04481
225,326	0,03834
225,544	0,03762
225,762	0,0247
225,979	0,01029
226,197	0,00634
226,414	-0,00166
226,632	-0,0052
226,849	-0,01619
227,066	-0,00323
227,284	-0,00638
227,501	0,00988
227,719	0,0235
227,936	0,02615
228,154	0,03433
228,371	0,03996
228,588	0,04365
228,806	0,04963
229,023	0,04955
229,241	0,05751
229,458	0,05046
229,675	0,04758
229,893	0,03697
230,11	0,0342
230,327	0,02591
230,545	0,03136
230,762	0,02255
230,979	0,01967
231,196	0,02211
231,414	0,03739
231,631	0,0312
231,848	0,02789
232,065	0,01575
232,283	0,00466
232,5	0,00799
232,717	0,01287
232,934	0,00325
233,151	0,00703
233,368	0,00247
233,586	-0,00596
233,803	-0,02256
234,02	-0,01002
234,237	-0,01374
234,454	-0,00126
234,671	0,01452
234,888	0,01026
235,105	0,00764
235,322	0,0266
235,54	0,02398
235,757	0,0293
235,974	0,04024
236,191	0,04339
236,408	0,03917
236,625	0,04554
236,842	0,04373
237,059	0,03778
237,276	0,02509
237,493	0,03435
237,71	0,03201
237,926	0,03182
238,143	0,03394
238,36	0,03064
238,577	0,02352
238,794	0,02278
239,011	0,02105
239,228	0,01741
239,445	0,01793
239,662	0,04406
239,878	0,04453
240,095	0,03278
240,312	0,04465
240,529	0,03931
240,746	0,03515
240,963	0,04928
241,179	0,05401
241,396	0,06332
241,613	0,05887
241,83	0,06187
242,046	0,04436
242,263	0,04001
242,48	0,0468
242,697	0,04681
242,913	0,04767
243,13	0,0411
243,347	0,0421
243,563	0,03391
243,78	0,03167
243,997	0,04251
244,213	0,04277
244,43	0,05886
244,646	0,05264
244,863	0,0504
245,08	0,04444
245,296	0,04285
245,513	0,04754
245,729	0,04693
245,946	0,0455
246,162	0,03962
246,379	0,03154
246,595	0,02268
246,812	0,0114
247,028	0,02335
247,245	0,01848
247,461	0,01573
247,678	0,01191
247,894	0,02654
248,111	0,0147
248,327	0,01809
248,544	0,00623
248,76	0,00994
248,976	0,02258
249,193	0,0267
249,409	0,01656
249,626	0,01926
249,842	0,036
250,058	0,03714
250,275	0,02789
250,491	0,02543
250,707	0,02938
250,924	0,04335
251,14	0,04434
251,356	0,05301
251,572	0,04866
251,789	0,06634
252,005	0,06544
252,221	0,05445
252,437	0,05407
252,654	0,05598
252,87	0,04888
253,086	0,0485
253,302	0,05334
253,518	0,05145
253,735	0,02743
253,951	0,02278
254,167	0,00938
254,383	0,01398
254,599	0,00598
254,815	0,01496
255,031	0,00821
255,247	0,01226
255,463	0,01323
255,68	0,02005
255,896	0,02527
256,112	0,03317
256,328	0,03252
256,544	0,03477
256,76	0,03698
256,976	0,04386
257,192	0,03701
257,408	0,04211
257,624	0,03871
257,84	0,02875
258,056	0,01994
258,272	0,02005
258,487	0,00985
258,703	0,01893
258,919	0,02267
259,135	0,0157
259,351	0,00557
259,567	0,01836
259,783	0,01738
259,999	0,03207
260,215	0,04228
260,43	0,03922
260,646	0,03893
260,862	0,05061
261,078	0,04849
261,294	0,03912
261,509	0,04561
261,725	0,05914
261,941	0,04536
262,157	0,0481
262,372	0,04708
262,588	0,04231
262,804	0,04505
263,019	0,04124
263,235	0,03839
263,451	0,0439
263,667	0,05968
263,882	0,06045
264,098	0,06398
264,313	0,06509
264,529	0,05329
264,745	0,0612
264,96	0,05263
265,176	0,05818
265,391	0,05383
265,607	0,06239
265,823	0,04491
266,038	0,03647
266,254	0,03037
266,469	0,02717
266,685	0,02075
266,9	0,0227
267,116	0,01542
267,331	0,03168
267,547	0,02874
267,762	0,03314
267,978	0,03369
268,193	0,03569
268,408	0,04089
268,624	0,04265
268,839	0,04118
269,055	0,04026
269,27	0,05016
269,485	0,04555
269,701	0,03331
269,916	0,03298
270,132	0,04116
270,347	0,03952
270,562	0,04834
270,777	0,04076
270,993	0,04372
271,208	0,03628
271,423	0,03605
271,639	0,04431
271,854	0,04092
272,069	0,03985
272,284	0,03135
272,5	0,02711
272,715	0,02
272,93	0,01009
273,145	0,00751
273,36	0,00895
273,576	0,02182
273,791	0,03255
274,006	0,0164
274,221	0,02002
274,436	0,02965
274,651	0,03426
274,866	0,03047
275,081	0,04395
275,296	0,04845
275,512	0,05332
275,727	0,05525
275,942	0,03784
276,157	0,02864
276,372	0,03732
276,587	0,04321
276,802	0,04464
277,017	0,03847
277,232	0,03762
277,447	0,03123
277,662	0,03
277,877	0,0184
278,092	0,01337
278,306	0,02121
278,521	0,02833
278,736	0,02791
278,951	0,02631
279,166	0,01042
279,381	0,01093
279,596	0,01176
279,811	0,00659
280,025	0,00297
280,24	0,01287
280,455	0,01067
280,67	0,01303
280,885	0,01468
281,099	0,00906
281,314	0,00207
281,529	0,01109
281,744	0,01876
281,959	0,02105
282,173	0,02854
282,388	0,03806
282,603	0,03164
282,817	0,0332
283,032	0,03297
283,247	0,02751
283,461	0,02969
283,676	0,02878
283,891	0,03322
284,105	0,03454
284,32	0,0404
284,535	0,04235
284,749	0,04516
284,964	0,06356
285,178	0,05935
285,393	0,06856
285,607	0,06816
285,822	0,06785
286,036	0,07417
286,251	0,0723
286,465	0,07723
286,68	0,06881
286,894	0,06122
287,109	0,06316
287,323	0,03983
287,538	0,0479
287,752	0,03069
287,967	0,0314
288,181	0,02949
288,396	0,03696
288,61	0,03496
288,824	0,03424
289,039	0,02985
289,253	0,0312
289,467	0,03137
289,682	0,03541
289,896	0,03525
290,11	0,04274
290,325	0,04879
290,539	0,04428
290,753	0,03986
290,968	0,04178
291,182	0,02675
291,396	0,03342
291,61	0,03234
291,825	0,02134
292,039	0,03171
292,253	0,03534
292,467	0,0334
292,681	0,02185
292,896	0,03337
293,11	0,02973
293,324	0,03722
293,538	0,04616
293,752	0,04512
293,966	0,04725
294,18	0,04771
294,394	0,03605
294,608	0,03261
294,823	0,03184
295,037	0,03961
295,251	0,03992
295,465	0,03871
295,679	0,02857
295,893	0,0284
296,107	0,0277
296,321	0,03106
296,535	0,03096
296,749	0,03085
296,963	0,02357
297,177	0,01679
297,391	0,02134
297,604	0,00735
297,818	0,01156
298,032	0,01169
298,246	0,00374
298,46	0,00712
298,674	0,00976
298,888	0,01676
299,102	0,02843
299,315	0,03649
299,529	0,04847
299,743	0,04488
299,957	0,04657
300,171	0,03848
300,385	0,04497
300,598	0,05707
300,812	0,0511
301,026	0,0442
301,24	0,04801
301,453	0,04329
301,667	0,04539
301,881	0,04834
302,094	0,04363
302,308	0,05077
302,522	0,06849
302,735	0,06516
302,949	0,05972
303,163	0,05836
303,376	0,06362
303,59	0,05978
303,803	0,05563
304,017	0,05156
304,231	0,04807
304,444	0,0502
304,658	0,05134
304,871	0,04512
305,085	0,04201
305,298	0,03695
305,512	0,03916
305,725	0,03109
305,939	0,02267
306,152	0,02172
306,366	0,00967
306,579	0,0101
306,793	0,02046
307,006	0,02329
307,22	0,01553
307,433	0,01894
307,646	0,01962
307,86	0,02199
308,073	0,03012
308,286	0,0214
308,5	0,03087
308,713	0,03984
308,926	0,04119
309,14	0,03082
309,353	0,02224
309,566	0,01919
309,78	0,00991
309,993	0,00775
310,206	0,00889
310,419	0,00863
310,633	0,02854
310,846	0,02448
311,059	0,02417
311,272	0,022
311,486	0,0249
311,699	0,02637
311,912	0,03092
312,125	0,0384
312,338	0,04282
312,551	0,03338
312,764	0,0295
312,978	0,03328
313,191	0,03157
313,404	0,02822
313,617	0,02108
313,83	0,01871
314,043	0,0172
314,256	0,01509
314,469	0,00706
314,682	0,00997
314,895	0,021
315,108	0,02488
315,321	0,01542
315,534	0,0163
315,747	0,0183
315,96	0,02778
316,173	0,02697
316,386	0,03167
316,599	0,03763
316,812	0,05715
317,025	0,05678
317,237	0,05751
317,45	0,05102
317,663	0,05071
317,876	0,05486
318,089	0,05611
318,302	0,04233
318,515	0,04815
318,727	0,0467
318,94	0,04172
319,153	0,03062
319,366	0,02862
319,578	0,0168
319,791	0,02306
320,004	0,01797
320,217	0,01624
320,429	0,02202
320,642	0,02855
320,855	0,01992
321,067	0,01266
321,28	0,00961
321,493	0,01032
321,705	0,00893
321,918	0,01713
322,131	0,01561
322,343	0,02094
322,556	0,02068
322,768	0,01059
322,981	0,00488
323,194	0,0071
323,406	0,00342
323,619	0,00884
323,831	0,00942
324,044	0,01492
324,256	0,01601
324,469	0,01086
324,681	0,00817
324,894	0,00355
325,106	0,0138
325,319	0,00881
325,531	0,01441
325,743	0,01958
325,956	0,02162
326,168	0,019
326,381	0,01786
326,593	0,01198
326,805	0,01508
327,018	0,01413
327,23	0,01019
327,442	0,01195
327,655	0,01558
327,867	0,01844
328,079	0,0189
328,292	0,0186
328,504	0,02286
328,716	0,02203
328,928	0,03296
329,141	0,03501
329,353	0,03426
329,565	0,03911
329,777	0,02796
329,99	0,03932
330,202	0,03508
330,414	0,02958
330,626	0,02669
330,838	0,02292
331,05	0,01151
331,263	0,00527
331,475	0,00919
331,687	0,00676
331,899	0,01541
332,111	0,01916
332,323	0,01445
332,535	0,01737
332,747	0,02719
332,959	0,02885
333,171	0,03209
333,383	0,03898
333,595	0,03245
333,807	0,03527
334,019	0,04345
334,231	0,03794
334,443	0,0422
334,655	0,04579
334,867	0,04054
335,079	0,04551
335,291	0,04077
335,503	0,04171
335,714	0,03763
335,926	0,04939
336,138	0,03847
336,35	0,03539
336,562	0,04334
336,774	0,03808
336,986	0,03967
337,197	0,04138
337,409	0,03487
337,621	0,0292
337,833	0,02801
338,044	0,03576
338,256	0,02661
338,468	0,03534
338,68	0,03465
338,891	0,0262
339,103	0,02142
339,315	0,01746
339,526	0,01333
339,738	0,00692
339,95	0,01427
340,161	0,02259
340,373	0,01154
340,585	0,00515
340,796	-0,00018
341,008	0,00393
341,219	0,01017
341,431	0,01588
341,642	0,0184
341,854	0,02393
342,065	0,03453
342,277	0,03578
342,489	0,02275
342,7	0,03031
342,912	0,0386
343,123	0,04693
343,334	0,04752
343,546	0,03779
343,757	0,04024
343,969	0,03021
344,18	0,02825
344,392	0,02015
344,603	0,02302
344,814	0,02127
345,026	0,02505
345,237	0,02072
345,448	0,01426
345,66	0,00894
345,871	0,01131
346,082	0,01033
346,294	0,01873
346,505	0,01855
346,716	0,02408
346,927	0,01709
347,139	0,01784
347,35	0,01999
347,561	0,0219
347,772	0,01186
347,984	0,01771
348,195	0,01682
348,406	0,01056
348,617	0,00828
348,828	0,00805
349,039	0,00737
349,251	0,00911
349,462	0,00765
349,673	0,00075
349,884	-0,00043
350,095	0,00708
350,306	0,00406
350,517	0,01397
350,728	0,01879
350,939	0,02408
351,15	0,0213
351,361	0,01939
351,572	0,0294
351,783	0,03355
351,994	0,03206
352,205	0,02972
352,416	0,02436
352,627	0,02468
352,838	0,01483
353,049	0,01816
353,26	0,01492
353,471	0,01299
353,682	0,00937
353,893	0,0012
354,103	0,00383
354,314	0,00455
354,525	0,0146
354,736	0,01988
354,947	0,01904
355,157	0,02278
355,368	0,01745
355,579	0,0109
355,79	0,01016
356,001	0,01203
356,211	0,01166
356,422	0,00367
356,633	0,00543
356,843	-0,00012
357,054	0,00118
357,265	0,00842
357,476	0,00735
357,686	0,00881
357,897	0,01542
358,107	0,02078
358,318	0,02514
358,529	0,02801
358,739	0,04187
358,95	0,04129
359,16	0,0427
359,371	0,04012
359,582	0,03
359,792	0,02521
360,003	0,02257
360,213	0,01674
360,424	0,01954
360,634	0,02274
360,845	0,01941
361,055	0,01282
361,266	0,01625
361,476	0,01932
361,686	0,02589
361,897	0,03012
362,107	0,04049
362,318	0,04162
362,528	0,04709
362,738	0,04315
362,949	0,03782
363,159	0,04079
363,369	0,0378
363,58	0,03528
363,79	0,03096
364	0,02169
364,211	0,01281
364,421	0,00717
364,631	0,01334
364,842	0,00904
365,052	0,00864
365,262	0,00678
365,472	0,00698
365,682	0,00814
365,893	0,0069
366,103	0,01027
366,313	0,01326
366,523	0,02629
366,733	0,02514
366,943	0,0221
367,154	0,02456
367,364	0,03069
367,574	0,03137
367,784	0,02963
367,994	0,02967
368,204	0,03359
368,414	0,03332
368,624	0,02874
368,834	0,02427
369,044	0,02424
369,254	0,02226
369,464	0,02191
369,674	0,01725
369,884	0,01925
370,094	0,0177
370,304	0,01604
370,514	0,01451
370,724	0,0108
370,934	0,01374
371,144	0,00994
371,353	0,01233
371,563	0,01331
371,773	0,01875
371,983	0,02276
372,193	0,02045
372,403	0,02374
372,612	0,02458
372,822	0,0222
373,032	0,02531
373,242	0,02518
373,452	0,02688
373,661	0,03049
373,871	0,03186
374,081	0,03007
374,29	0,02761
374,5	0,0289
374,71	0,02144
374,92	0,02073
375,129	0,02117
375,339	0,0193
375,549	0,01967
375,758	0,0217
375,968	0,01527
376,177	0,01164
376,387	0,00638
376,597	0,00722
376,806	0,00838
377,016	0,01434
377,225	0,01518
377,435	0,01604
377,644	0,0135
377,854	0,0139
378,063	0,01252
378,273	0,01314
378,482	0,0174
378,692	0,02176
378,901	0,01826
379,111	0,01674
379,32	0,01694
379,529	0,02111
379,739	0,02144
379,948	0,02529
380,158	0,02817
380,367	0,03193
380,576	0,03312
380,786	0,0272
380,995	0,02688
381,204	0,03169
381,414	0,03442
381,623	0,0343
381,832	0,03163
382,041	0,0315
382,251	0,03154
382,46	0,02795
382,669	0,02454
382,878	0,02621
383,088	0,02906
383,297	0,02879
383,506	0,0276
383,715	0,02486
383,924	0,02574
384,133	0,02645
384,342	0,02826
384,552	0,02856
384,761	0,03218
384,97	0,0311
385,179	0,02933
385,388	0,02688
385,597	0,02664
385,806	0,02747
386,015	0,02806
386,224	0,02918
386,433	0,02729
386,642	0,0247
386,851	0,02678
387,06	0,02287
387,269	0,02545
387,478	0,02818
387,687	0,03133
387,896	0,03043
388,105	0,02638
388,314	0,02157
388,523	0,01749
388,731	0,01664
388,94	0,01734
389,149	0,01414
389,358	0,01485
389,567	0,01528
389,776	0,01269
389,984	0,01087
390,193	0,01171
390,402	0,01038
390,611	0,01332
390,819	0,01415
391,028	0,01612
391,237	0,01728
391,446	0,01597
391,654	0,0168
391,863	0,01455
392,072	0,01415
392,28	0,01559
392,489	0,01449
392,698	0,01499
392,906	0,0153
393,115	0,01553
393,324	0,01647
393,532	0,01338
393,741	0,01217
393,949	0,01133
394,158	0,01093
394,366	0,0095
394,575	0,00692
394,783	0,00651
394,992	0,00846
395,2	0,00784
395,409	0,00947
395,617	0,00537
395,826	0,00733
396,034	0,00654
396,243	0,00655
396,451	0,00754
396,66	0,01055
396,868	0,01319
397,076	0,01274
397,285	0,00967
397,493	0,01115
397,701	0,00721
397,91	0,00711
398,118	0,00846
398,326	0,01176
398,535	0,01079
398,743	0,01193
398,951	0,01119
399,159	0,01207
399,368	0,01439
399,576	0,01855
399,784	0,01863
399,992	0,02067
400,201	0,02203
400,409	0,01983
400,617	0,01868
400,825	0,02158
401,033	0,02088
401,241	0,0216
401,45	0,02123
401,658	0,02167
401,866	0,02205
402,074	0,02313
402,282	0,02334
402,49	0,02227
402,698	0,02147
402,906	0,01998
403,114	0,01822
403,322	0,0174
403,53	0,0164
403,738	0,0138
403,946	0,00987
404,154	0,00594
404,362	0,00451
404,57	0,00216
404,778	0,00332
404,986	0,00539
405,194	0,00679
405,402	0,00674
405,609	0,00555
405,817	0,00415
406,025	0,00769
406,233	0,01057
406,441	0,01287
406,649	0,01255
406,856	0,01457
407,064	0,01609
407,272	0,01522
407,48	0,01625
407,687	0,01545
407,895	0,01685
408,103	0,01787
408,311	0,01618
408,518	0,01414
408,726	0,01525
408,934	0,01571
409,141	0,01643
409,349	0,01109
409,557	0,01129
409,764	0,00963
409,972	0,01079
410,18	0,01087
410,387	0,01157
410,595	0,01269
410,802	0,01345
411,01	0,01176
411,217	0,01176
411,425	0,01134
411,632	0,01458
411,84	0,01544
412,047	0,01481
412,255	0,01528
412,462	0,01513
412,67	0,01449
412,877	0,01152
413,085	0,01117
413,292	0,01154
413,499	0,01121
413,707	0,01283
413,914	0,01314
414,122	0,01151
414,329	0,01328
414,536	0,01268
414,744	0,01373
414,951	0,01437
415,158	0,01656
415,366	0,017
415,573	0,0179
415,78	0,01853
415,987	0,01561
416,195	0,01645
416,402	0,01739
416,609	0,01816
416,816	0,01815
417,023	0,01785
417,231	0,01786
417,438	0,01833
417,645	0,01841
417,852	0,01744
418,059	0,01753
418,266	0,01698
418,473	0,01645
418,68	0,01633
418,888	0,01541
419,095	0,01636
419,302	0,01509
419,509	0,01562
419,716	0,01418
419,923	0,01426
420,13	0,01353
420,337	0,01433
420,544	0,01605
420,751	0,01504
420,958	0,01413
421,165	0,01453
421,371	0,01303
421,578	0,01347
421,785	0,01148
421,992	0,01198
422,199	0,01307
422,406	0,01455
422,613	0,01421
422,82	0,01515
423,026	0,01592
423,233	0,01743
423,44	0,01539
423,647	0,01597
423,854	0,01496
424,06	0,01437
424,267	0,01435
424,474	0,01309
424,681	0,0115
424,887	0,01038
425,094	0,00851
425,301	0,0107
425,507	0,0099
425,714	0,00977
425,921	0,00882
426,127	0,00917
426,334	0,01002
426,54	0,01022
426,747	0,01202
426,954	0,01201
427,16	0,01155
427,367	0,01216
427,573	0,01051
427,78	0,01074
427,986	0,01256
428,193	0,01316
428,399	0,01415
428,606	0,0146
428,812	0,01536
429,019	0,01374
429,225	0,01476
429,432	0,0159
429,638	0,01588
429,845	0,01547
430,051	0,01597
430,257	0,01507
430,464	0,01497
430,67	0,01469
430,876	0,01411
431,083	0,01343
431,289	0,01431
431,495	0,01479
431,702	0,01349
431,908	0,01236
432,114	0,01182
432,32	0,01107
432,527	0,01113
432,733	0,01008
432,939	0,01002
433,145	0,01107
433,351	0,01157
433,558	0,01224
433,764	0,01173
433,97	0,01169
434,176	0,01263
434,382	0,01386
434,588	0,01387
434,794	0,01365
435,001	0,01554
435,207	0,01534
435,413	0,01445
435,619	0,01364
435,825	0,01238
436,031	0,01228
436,237	0,01385
436,443	0,01394
436,649	0,01333
436,855	0,01367
437,061	0,01441
437,267	0,01356
437,473	0,01343
437,679	0,01404
437,884	0,01346
438,09	0,01238
438,296	0,01131
438,502	0,00973
438,708	0,01038
438,914	0,00976
439,12	0,00949
439,325	0,00998
439,531	0,01077
439,737	0,01172
439,943	0,01134
440,149	0,0118
440,354	0,01233
440,56	0,01292
440,766	0,01273
440,972	0,01331
441,177	0,01456
441,383	0,01455
441,589	0,01405
441,794	0,0138
442	0,0131
442,206	0,01438
442,411	0,01447
442,617	0,01505
442,822	0,01541
443,028	0,01612
443,234	0,01644
443,439	0,01609
443,645	0,0158
443,85	0,01536
444,056	0,01459
444,261	0,01601
444,467	0,01522
444,672	0,01528
444,878	0,01556
445,083	0,01578
445,289	0,01561
445,494	0,01435
445,699	0,01415
445,905	0,01471
446,11	0,01607
446,316	0,01672
446,521	0,01494
446,726	0,01529
446,932	0,01544
447,137	0,01588
447,342	0,0163
447,548	0,01698
447,753	0,01744
447,958	0,01745
448,164	0,01657
448,369	0,01602
448,574	0,01574
448,779	0,01648
448,984	0,01563
449,19	0,01594
449,395	0,0146
449,6	0,01443
449,805	0,01409
450,01	0,01381
450,215	0,01428
450,421	0,01543
450,626	0,01606
450,831	0,01637
451,036	0,01601
451,241	0,0171
451,446	0,01665
451,651	0,01795
451,856	0,01725
452,061	0,01875
452,266	0,01901
452,471	0,0197
452,676	0,02004
452,881	0,01925
453,086	0,02007
453,291	0,02058
453,496	0,02013
453,701	0,02106
453,906	0,02065
454,111	0,02058
454,316	0,01943
454,52	0,01917
454,725	0,01828
454,93	0,01839
455,135	0,01902
455,34	0,01811
455,545	0,01899
455,749	0,01912
455,954	0,01887
456,159	0,0195
456,364	0,02035
456,568	0,02048
456,773	0,02109
456,978	0,02156
457,182	0,02157
457,387	0,02131
457,592	0,02194
457,796	0,02113
458,001	0,02197
458,206	0,02202
458,41	0,0213
458,615	0,02112
458,82	0,02124
459,024	0,02181
459,229	0,02186
459,433	0,02182
459,638	0,02253
459,842	0,02351
460,047	0,02382
460,251	0,02365
460,456	0,02329
460,66	0,02451
460,865	0,02504
461,069	0,0253
461,274	0,0251
461,478	0,02533
461,682	0,02537
461,887	0,0253
462,091	0,0245
462,296	0,02489
462,5	0,02563
462,704	0,02617
462,909	0,02529
463,113	0,02544
463,317	0,02576
463,522	0,02642
463,726	0,02654
463,93	0,02679
464,134	0,02672
464,339	0,02687
464,543	0,0265
464,747	0,02593
464,951	0,02629
465,155	0,027
465,36	0,02743
465,564	0,02713
465,768	0,02645
465,972	0,02715
466,176	0,02747
466,38	0,02773
466,584	0,02798
466,788	0,02841
466,993	0,02889
467,197	0,02917
467,401	0,02931
467,605	0,02895
467,809	0,02992
468,013	0,03054
468,217	0,03037
468,421	0,03015
468,625	0,03018
468,829	0,03064
469,033	0,03052
469,236	0,03108
469,44	0,03034
469,644	0,03056
469,848	0,03103
470,052	0,03109
470,256	0,03038
470,46	0,03054
470,664	0,03079
470,867	0,03097
471,071	0,03109
471,275	0,03177
471,479	0,03133
471,683	0,03208
471,886	0,03255
472,09	0,0326
472,294	0,03288
472,497	0,03359
472,701	0,03347
472,905	0,03368
473,109	0,03412
473,312	0,03425
473,516	0,03456
473,719	0,03473
473,923	0,03523
474,127	0,03527
474,33	0,03511
474,534	0,0353
474,737	0,03576
474,941	0,03639
475,145	0,03643
475,348	0,0365
475,552	0,03677
475,755	0,03695
475,959	0,03762
476,162	0,03768
476,366	0,03768
476,569	0,03856
476,772	0,03894
476,976	0,03923
477,179	0,03946
477,383	0,04008
477,586	0,04019
477,789	0,0404
477,993	0,04081
478,196	0,0409
478,399	0,04148
478,603	0,04211
478,806	0,04221
479,009	0,04207
479,213	0,04181
479,416	0,04204
479,619	0,04284
479,822	0,04346
480,026	0,04412
480,229	0,04402
480,432	0,04465
480,635	0,04475
480,838	0,04509
481,041	0,04507
481,245	0,04531
481,448	0,04587
481,651	0,04626
481,854	0,04606
482,057	0,04631
482,26	0,04622
482,463	0,04674
482,666	0,04666
482,869	0,04691
483,072	0,04693
483,275	0,04758
483,478	0,04764
483,681	0,04825
483,884	0,04816
484,087	0,04847
484,29	0,04876
484,493	0,04907
484,696	0,04967
484,899	0,05026
485,102	0,05062
485,305	0,05099
485,508	0,05146
485,71	0,05222
485,913	0,05261
486,116	0,05309
486,319	0,05345
486,522	0,05374
486,725	0,05411
486,927	0,05446
487,13	0,05462
487,333	0,05515
487,536	0,05568
487,738	0,05615
487,941	0,05647
488,144	0,05686
488,346	0,05731
488,549	0,05754
488,752	0,05824
488,954	0,059
489,157	0,05879
489,359	0,05939
489,562	0,05981
489,765	0,06021
489,967	0,0606
490,17	0,06104
490,372	0,06129
490,575	0,06161
490,777	0,06214
490,98	0,06245
491,182	0,06222
491,385	0,06305
491,587	0,06343
491,79	0,06377
491,992	0,06416
492,195	0,06425
492,397	0,0646
492,599	0,06489
492,802	0,06527
493,004	0,0657
493,207	0,06577
493,409	0,06661
493,611	0,06694
493,814	0,06733
494,016	0,06754
494,218	0,0679
494,42	0,06851
494,623	0,06892
494,825	0,06976
495,027	0,07024
495,229	0,07068
495,432	0,07131
495,634	0,07171
495,836	0,07238
496,038	0,07281
496,24	0,07333
496,442	0,07389
496,645	0,07419
496,847	0,07461
497,049	0,07467
497,251	0,07513
497,453	0,07571
497,655	0,07637
497,857	0,07698
498,059	0,07724
498,261	0,07751
498,463	0,07811
498,665	0,07852
498,867	0,07913
499,069	0,07983
499,271	0,08014
499,473	0,08074
499,675	0,0812
499,877	0,08156
500,079	0,08208
500,281	0,08266
500,482	0,08323
500,684	0,08355
500,886	0,08398
501,088	0,08442
501,29	0,08497
501,492	0,08588
501,693	0,08667
501,895	0,08734
502,097	0,08783
502,299	0,08829
502,5	0,08873
502,702	0,08938
502,904	0,09036
503,106	0,09124
503,307	0,09183
503,509	0,09221
503,711	0,09276
503,912	0,09294
504,114	0,09328
504,315	0,0938
504,517	0,09432
504,719	0,09499
504,92	0,09546
505,122	0,09574
505,323	0,09602
505,525	0,0967
505,726	0,09742
505,928	0,09797
506,129	0,09891
506,331	0,09954
506,532	0,1003
506,734	0,10069
506,935	0,1013
507,137	0,10184
507,338	0,10234
507,539	0,10292
507,741	0,10347
507,942	0,10403
508,143	0,10453
508,345	0,10498
508,546	0,1054
508,747	0,10602
508,949	0,10694
509,15	0,10729
509,351	0,1081
509,553	0,10874
509,754	0,10959
509,955	0,11015
510,156	0,11083
510,357	0,11159
510,559	0,11232
510,76	0,1131
510,961	0,11382
511,162	0,11439
511,363	0,11518
511,564	0,11558
511,766	0,11644
511,967	0,11708
512,168	0,11786
512,369	0,11868
512,57	0,11945
512,771	0,12031
512,972	0,12107
513,173	0,12182
513,374	0,12251
513,575	0,12331
513,776	0,12427
513,977	0,12467
514,178	0,12537
514,379	0,12613
514,58	0,1269
514,781	0,12763
514,981	0,12826
515,182	0,129
515,383	0,1297
515,584	0,13057
515,785	0,13138
515,986	0,13205
516,187	0,1329
516,387	0,13343
516,588	0,13414
516,789	0,13475
516,99	0,13546
517,19	0,13608
517,391	0,13681
517,592	0,13736
517,793	0,13794
517,993	0,13872
518,194	0,13953
518,395	0,14068
518,595	0,14163
518,796	0,14244
518,996	0,14307
519,197	0,14387
519,398	0,14457
519,598	0,14558
519,799	0,14642
519,999	0,14729
520,2	0,14805
520,4	0,14873
520,601	0,14949
520,801	0,15005
521,002	0,15071
521,202	0,15156
521,403	0,15232
521,603	0,1532
521,804	0,15368
522,004	0,15433
522,204	0,15516
522,405	0,15579
522,605	0,15648
522,806	0,15709
523,006	0,158
523,206	0,15884
523,407	0,1597
523,607	0,16039
523,807	0,16103
524,007	0,1619
524,208	0,16282
524,408	0,16337
524,608	0,16423
524,808	0,16519
525,009	0,16586
525,209	0,16657
525,409	0,1672
525,609	0,16795
525,809	0,16893
526,009	0,1696
526,209	0,17043
526,41	0,17095
526,61	0,17211
526,81	0,17291
527,01	0,17376
527,21	0,17459
527,41	0,17554
527,61	0,17612
527,81	0,17663
528,01	0,17722
528,21	0,17812
528,41	0,17881
528,61	0,17963
528,81	0,18006
529,01	0,1807
529,21	0,18121
529,41	0,18167
529,609	0,18224
529,809	0,1831
530,009	0,1839
530,209	0,18468
530,409	0,18512
530,609	0,18582
530,808	0,18644
531,008	0,1871
531,208	0,18775
531,408	0,18858
531,608	0,18947
531,807	0,19015
532,007	0,19082
532,207	0,19148
532,406	0,19206
532,606	0,19293
532,806	0,19355
533,005	0,19435
533,205	0,19499
533,405	0,19557
533,604	0,19622
533,804	0,19683
534,003	0,19745
534,203	0,19797
534,403	0,19846
534,602	0,19898
534,802	0,19933
535,001	0,19998
535,201	0,20048
535,4	0,20088
535,6	0,20139
535,799	0,20175
535,998	0,20233
536,198	0,20278
536,397	0,20334
536,597	0,20387
536,796	0,20463
536,995	0,20546
537,195	0,20591
537,394	0,2067
537,594	0,20745
537,793	0,20812
537,992	0,20891
538,191	0,20934
538,391	0,20987
538,59	0,21052
538,789	0,21115
538,988	0,21135
539,188	0,21172
539,387	0,21223
539,586	0,21254
539,785	0,21296
539,984	0,21334
540,184	0,21352
540,383	0,21406
540,582	0,21467
540,781	0,21522
540,98	0,2157
541,179	0,21638
541,378	0,21688
541,577	0,2174
541,776	0,21793
541,975	0,21843
542,174	0,21887
542,373	0,21929
542,572	0,21966
542,771	0,22014
542,97	0,22048
543,169	0,22088
543,368	0,221
543,567	0,2213
543,766	0,22149
543,965	0,22184
544,164	0,22205
544,362	0,22262
544,561	0,2231
544,76	0,22357
544,959	0,22384
545,158	0,22413
545,356	0,22443
545,555	0,22487
545,754	0,22544
545,953	0,22587
546,151	0,22611
546,35	0,22667
546,549	0,22675
546,748	0,22708
546,946	0,22727
547,145	0,22745
547,344	0,22789
547,542	0,22815
547,741	0,22849
547,939	0,22844
548,138	0,22857
548,337	0,22908
548,535	0,22903
548,734	0,22924
548,932	0,22927
549,131	0,22955
549,329	0,22972
549,528	0,2299
549,726	0,23027
549,925	0,23057
550,123	0,23098
550,322	0,23141
550,52	0,23149
550,718	0,23177
550,917	0,23201
551,115	0,23225
551,313	0,2325
551,512	0,23293
551,71	0,23322
551,908	0,23325
552,107	0,23352
552,305	0,23377
552,503	0,23401
552,702	0,23404
552,9	0,23442
553,098	0,23479
553,296	0,23524
553,495	0,23549
553,693	0,23566
553,891	0,23582
554,089	0,23626
554,287	0,23654
554,485	0,23689
554,683	0,23698
554,882	0,23744
555,08	0,23779
555,278	0,238
555,476	0,23812
555,674	0,23826
555,872	0,23845
556,07	0,2386
556,268	0,23875
556,466	0,23887
556,664	0,23906
556,862	0,23938
557,06	0,23971
557,258	0,23986
557,456	0,24033
557,654	0,24069
557,851	0,24082
558,049	0,24115
558,247	0,2416
558,445	0,24202
558,643	0,24226
558,841	0,24257
559,039	0,24289
559,236	0,24309
559,434	0,24337
559,632	0,24355
559,83	0,2441
560,027	0,2448
560,225	0,24523
560,423	0,24554
560,62	0,24586
560,818	0,24605
561,016	0,24636
561,213	0,24676
561,411	0,24716
561,609	0,24753
561,806	0,24783
562,004	0,24794
562,202	0,24791
562,399	0,24831
562,597	0,24871
562,794	0,24909
562,992	0,24962
563,189	0,25009
563,387	0,25042
563,584	0,25097
563,782	0,25147
563,979	0,25188
564,177	0,25248
564,374	0,25316
564,571	0,25365
564,769	0,25398
564,966	0,25435
565,164	0,25504
565,361	0,25538
565,558	0,2558
565,756	0,25615
565,953	0,25656
566,15	0,25708
566,347	0,25756
566,545	0,25818
566,742	0,25864
566,939	0,25917
567,136	0,25968
567,334	0,25991
567,531	0,26046
567,728	0,26106
567,925	0,26169
568,122	0,26232
568,319	0,26302
568,517	0,26363
568,714	0,26414
568,911	0,26472
569,108	0,26545
569,305	0,26611
569,502	0,26693
569,699	0,26755
569,896	0,26828
570,093	0,26875
570,29	0,2694
570,487	0,27005
570,684	0,27069
570,881	0,27144
571,078	0,27209
571,275	0,27271
571,472	0,27342
571,669	0,27403
571,866	0,2747
572,062	0,2753
572,259	0,27623
572,456	0,27672
572,653	0,27733
572,85	0,27799
573,047	0,27862
573,243	0,2792
573,44	0,28001
573,637	0,2807
573,834	0,28155
574,03	0,28243
574,227	0,28331
574,424	0,28388
574,62	0,28469
574,817	0,28548
575,014	0,28619
575,21	0,28683
575,407	0,28772
575,604	0,28831
575,8	0,28914
575,997	0,28989
576,193	0,29056
576,39	0,29138
576,586	0,29212
576,783	0,29297
576,979	0,2939
577,176	0,29472
577,372	0,29555
577,569	0,29632
577,765	0,29698
577,962	0,29784
578,158	0,29874
578,355	0,29953
578,551	0,30013
578,747	0,30098
578,944	0,3017
579,14	0,30233
579,336	0,3032
579,533	0,30395
579,729	0,30465
579,925	0,30548
580,122	0,30613
580,318	0,30655
580,514	0,30728
580,71	0,30802
580,906	0,30876
581,103	0,30947
581,299	0,31007
581,495	0,3106
581,691	0,31125
581,887	0,31196
582,084	0,31263
582,28	0,31335
582,476	0,31409
582,672	0,31473
582,868	0,31537
583,064	0,31581
583,26	0,31644
583,456	0,31692
583,652	0,31746
583,848	0,31813
584,044	0,31861
584,24	0,31928
584,436	0,31967
584,632	0,32012
584,828	0,32057
585,024	0,32099
585,22	0,32157
585,416	0,32188
585,611	0,32249
585,807	0,323
586,003	0,32344
586,199	0,32381
586,395	0,32419
586,591	0,3244
586,786	0,32477
586,982	0,32523
587,178	0,32556
587,374	0,32567
587,569	0,32597
587,765	0,32617
587,961	0,32629
588,156	0,32639
588,352	0,32648
588,548	0,3266
588,743	0,32669
588,939	0,32672
589,135	0,32659
589,33	0,32657
589,526	0,32669
589,721	0,32679
589,917	0,32663
590,112	0,32651
590,308	0,3262
590,503	0,32625
590,699	0,32599
590,894	0,32605
591,09	0,32592
591,285	0,32576
591,481	0,32553
591,676	0,32528
591,872	0,32495
592,067	0,32461
592,262	0,32441
592,458	0,32424
592,653	0,32365
592,848	0,32324
593,044	0,32266
593,239	0,32225
593,434	0,32164
593,629	0,32119
593,825	0,32064
594,02	0,32002
594,215	0,31951
594,41	0,31865
594,606	0,31793
594,801	0,31749
594,996	0,31688
595,191	0,31619
595,386	0,31546
595,581	0,31477
595,777	0,31394
595,972	0,31305
596,167	0,31223
596,362	0,3113
596,557	0,31062
596,752	0,30973
596,947	0,30854
597,142	0,30756
597,337	0,30658
597,532	0,30543
597,727	0,30442
597,922	0,30325
598,117	0,30226
598,312	0,3011
598,507	0,29999
598,701	0,29859
598,896	0,29732
599,091	0,29614
599,286	0,29486
599,481	0,29348
599,676	0,29211
599,87	0,29068
600,065	0,2893
600,26	0,28787
600,455	0,2864
600,65	0,28499
600,844	0,28351
601,039	0,28206
601,234	0,28057
601,428	0,2793
601,623	0,27783
601,818	0,2763
602,012	0,27482
602,207	0,27336
602,402	0,27186
602,596	0,27026
602,791	0,26878
602,985	0,2674
603,18	0,26571
603,374	0,26416
603,569	0,26242
603,763	0,26095
603,958	0,25939
604,152	0,25781
604,347	0,25607
604,541	0,25428
604,736	0,25268
604,93	0,25084
605,125	0,24891
605,319	0,24725
605,513	0,24542
605,708	0,2436
605,902	0,24161
606,096	0,2398
606,291	0,23799
606,485	0,23623
606,679	0,23451
606,874	0,23266
607,068	0,23085
607,262	0,22918
607,456	0,22748
607,65	0,22574
607,845	0,22393
608,039	0,22226
608,233	0,22053
608,427	0,21854
608,621	0,2168
608,815	0,21493
609,01	0,21321
609,204	0,21143
609,398	0,20974
609,592	0,208
609,786	0,20622
609,98	0,20455
610,174	0,20276
610,368	0,20103
610,562	0,19937
610,756	0,19757
610,95	0,19598
611,144	0,19427
611,338	0,19257
611,532	0,19073
611,726	0,18891
611,919	0,1872
612,113	0,18535
612,307	0,18355
612,501	0,18172
612,695	0,18007
612,889	0,17833
613,082	0,17648
613,276	0,17475
613,47	0,173
613,664	0,17114
613,857	0,16928
614,051	0,16752
614,245	0,16568
614,439	0,16392
614,632	0,16237
614,826	0,16057
615,02	0,15877
615,213	0,15713
615,407	0,15542
615,6	0,1538
615,794	0,15218
615,988	0,1506
616,181	0,1489
616,375	0,14735
616,568	0,14579
616,762	0,14409
616,955	0,14261
617,149	0,14104
617,342	0,13936
617,536	0,13781
617,729	0,13633
617,923	0,135
618,116	0,13351
618,309	0,13202
618,503	0,13053
618,696	0,129
618,889	0,12744
619,083	0,12583
619,276	0,12434
619,469	0,12288
619,663	0,12139
619,856	0,11983
620,049	0,11836
620,242	0,11696
620,436	0,11561
620,629	0,11438
620,822	0,11309
621,015	0,11172
621,209	0,11048
621,402	0,10929
621,595	0,10801
621,788	0,10676
621,981	0,10549
622,174	0,10414
622,367	0,10287
622,56	0,10154
622,753	0,10022
622,946	0,09897
623,139	0,09774
623,332	0,09661
623,525	0,09532
623,718	0,09411
623,911	0,09291
624,104	0,09171
624,297	0,09067
624,49	0,08958
624,683	0,08847
624,876	0,08742
625,069	0,08626
625,262	0,08537
625,454	0,08418
625,647	0,08322
625,84	0,08212
626,033	0,08118
626,226	0,08023
626,418	0,07916
626,611	0,07821
626,804	0,07717
626,997	0,076
627,189	0,07516
627,382	0,07408
627,575	0,0731
627,767	0,07218
627,96	0,07126
628,153	0,07028
628,345	0,06931
628,538	0,06843
628,731	0,06747
628,923	0,0667
629,116	0,06602
629,308	0,06496
629,501	0,06403
629,693	0,06325
629,886	0,06238
630,078	0,06161
630,271	0,06079
630,463	0,05998
630,656	0,05911
630,848	0,05832
631,04	0,05755
631,233	0,05669
631,425	0,05607
631,617	0,0553
631,81	0,05458
632,002	0,05381
632,194	0,05319
632,387	0,05248
632,579	0,0518
632,771	0,05112
632,964	0,05045
633,156	0,04976
633,348	0,04898
633,54	0,04844
633,732	0,0478
633,925	0,04715
634,117	0,04658
634,309	0,0459
634,501	0,04532
634,693	0,04472
634,885	0,04415
635,077	0,04355
635,269	0,04297
635,462	0,04248
635,654	0,04185
635,846	0,04141
636,038	0,04087
636,23	0,04032
636,422	0,03978
636,614	0,03923
636,806	0,03878
636,997	0,03827
637,189	0,03782
637,381	0,03732
637,573	0,03688
637,765	0,03635
637,957	0,03576
638,149	0,0353
638,341	0,03492
638,532	0,03453
638,724	0,03409
638,916	0,03373
639,108	0,03321
639,299	0,03281
639,491	0,03232
639,683	0,03204
639,875	0,03172
640,066	0,03137
640,258	0,03093
640,45	0,03047
640,641	0,03014
640,833	0,02977
641,025	0,02932
641,216	0,02899
641,408	0,02853
641,599	0,02821
641,791	0,0278
641,982	0,02736
642,174	0,02702
642,366	0,02668
642,557	0,02628
642,748	0,02575
642,94	0,02537
643,131	0,02497
643,323	0,02469
643,514	0,02443
643,706	0,02421
643,897	0,02386
644,088	0,02361
644,28	0,02328
644,471	0,02301
644,662	0,02285
644,854	0,02268
645,045	0,0224
645,236	0,0221
645,428	0,02184
645,619	0,02157
645,81	0,0213
646,001	0,02096
646,193	0,02069
646,384	0,02038
646,575	0,02007
646,766	0,0198
646,957	0,01941
647,148	0,01916
647,339	0,01899
647,531	0,01876
647,722	0,0185
647,913	0,01821
648,104	0,01798
648,295	0,01773
648,486	0,01755
648,677	0,01727
648,868	0,017
649,059	0,01693
649,25	0,01673
649,441	0,01661
649,632	0,01633
649,823	0,01619
650,013	0,01597
650,204	0,01579
650,395	0,01558
650,586	0,01549
650,777	0,01544
650,968	0,01522
651,159	0,01504
651,349	0,01488
651,54	0,01454
651,731	0,01437
651,922	0,01416
652,112	0,014
652,303	0,01382
652,494	0,01365
652,684	0,01339
652,875	0,01316
653,066	0,01302
653,256	0,0129
653,447	0,01272
653,638	0,01267
653,828	0,01256
654,019	0,01236
654,209	0,01225
654,4	0,01214
654,59	0,01209
654,781	0,01207
654,972	0,01191
655,162	0,01188
655,352	0,01166
655,543	0,01148
655,733	0,01132
655,924	0,01129
656,114	0,01117
656,305	0,01103
656,495	0,01087
656,685	0,01065
656,876	0,01049
657,066	0,01042
657,256	0,01029
657,447	0,01028
657,637	0,01027
657,827	0,0102
658,017	0,01004
658,208	0,00996
658,398	0,00977
658,588	0,00974
658,778	0,00975
658,968	0,00959
659,159	0,00949
659,349	0,00933
659,539	0,0091
659,729	0,009
659,919	0,00897
660,109	0,00885
660,299	0,00887
660,489	0,00896
660,679	0,00888
660,869	0,0087
661,059	0,00869
661,249	0,00858
661,439	0,00855
661,629	0,00852
661,819	0,00848
662,009	0,00831
662,199	0,00829
662,389	0,00814
662,579	0,00794
662,769	0,00774
662,959	0,00773
663,149	0,00764
663,338	0,00765
663,528	0,00756
663,718	0,00748
663,908	0,00729
664,097	0,00709
664,287	0,00699
664,477	0,00696
664,667	0,00694
664,856	0,00703
665,046	0,00695
665,236	0,00687
665,425	0,00683
665,615	0,00685
665,805	0,00688
665,994	0,00693
666,184	0,00704
666,373	0,00691
666,563	0,00687
666,753	0,00675
666,942	0,00659
667,132	0,00644
667,321	0,00639
667,511	0,00627
667,7	0,00612
667,889	0,00594
668,079	0,00585
668,268	0,00581
668,458	0,00578
668,647	0,00573
668,836	0,00571
669,026	0,00575
669,215	0,00573
669,404	0,00584
669,594	0,00578
669,783	0,00577
669,972	0,00573
670,162	0,00573
670,351	0,00564
670,54	0,00555
670,729	0,00537
670,919	0,00527
671,108	0,00516
671,297	0,00514
671,486	0,00493
671,675	0,00483
671,864	0,00476
672,053	0,00479
672,243	0,00467
672,432	0,00461
672,621	0,0046
672,81	0,00464
672,999	0,0047
673,188	0,00489
673,377	0,00488
673,566	0,00492
673,755	0,00494
673,944	0,00485
674,133	0,00467
674,322	0,00471
674,51	0,00469
674,699	0,00472
674,888	0,00461
675,077	0,00448
675,266	0,00426
675,455	0,00429
675,644	0,00425
675,832	0,00421
676,021	0,00423
676,21	0,00435
676,399	0,00428
676,587	0,00424
676,776	0,00414
676,965	0,00411
677,153	0,00414
677,342	0,00411
677,531	0,00399
677,719	0,00387
677,908	0,00395
678,097	0,00393
678,285	0,00393
678,474	0,00393
678,662	0,004
678,851	0,00404
679,039	0,00408
679,228	0,00404
679,416	0,00402
679,605	0,00399
679,793	0,00403
679,982	0,00391
680,17	0,00388
680,359	0,00389
680,547	0,00387
680,736	0,0038
680,924	0,00385
681,112	0,00379
681,301	0,00388
681,489	0,00382
681,677	0,00388
681,866	0,00382
682,054	0,00367
682,242	0,00362
682,43	0,00359
682,619	0,0035
682,807	0,00338
682,995	0,00321
683,183	0,00322
683,371	0,00313
683,559	0,00314
683,748	0,00302
683,936	0,00299
684,124	0,00312
684,312	0,00309
684,5	0,00287
684,688	0,0029
684,876	0,00296
685,064	0,00294
685,252	0,0029
685,44	0,00285
685,628	0,00287
685,816	0,00288
686,004	0,00294
686,192	0,00284
686,38	0,00285
686,568	0,00296
686,756	0,00294
686,944	0,00284
687,131	0,00291
687,319	0,00295
687,507	0,00292
687,695	0,00285
687,883	0,00287
688,07	0,00286
688,258	0,00282
688,446	0,00286
688,634	0,00295
688,821	0,00289
689,009	0,00288
689,197	0,00289
689,384	0,00294
689,572	0,00291
689,76	0,00301
689,947	0,00293
690,135	0,00289
690,323	0,00299
690,51	0,00286
690,698	0,00279
690,885	0,00291
691,073	0,00289
691,26	0,00281
691,448	0,00272
691,635	0,00276
691,823	0,00266
692,01	0,0027
692,197	0,00264
692,385	0,00262
692,572	0,0028
692,76	0,00279
692,947	0,0028
693,134	0,00293
693,322	0,00289
693,509	0,00284
693,696	0,00278
693,884	0,00279
694,071	0,0028
694,258	0,00283
694,445	0,00277
694,633	0,00264
694,82	0,00248
695,007	0,00243
695,194	0,0024
695,381	0,00236
695,568	0,00235
695,756	0,00242
695,943	0,00242
696,13	0,00243
696,317	0,00243
696,504	0,00242
696,691	0,0024
696,878	0,00248
697,065	0,00232
697,252	0,00231
697,439	0,00247
697,626	0,00246
697,813	0,00239
698	0,00228
698,187	0,00217
698,374	0,00219
698,561	0,00223
698,747	0,00234
698,934	0,00232
699,121	0,00239
699,308	0,00226
699,495	0,00224
699,682	0,00228
699,868	0,00227
700,055	0,00221
700,242	0,00219
700,429	0,00205
700,615	0,00199
700,802	0,00184
700,989	0,00184
701,175	0,00181
701,362	0,00186
701,549	0,0017
701,735	0,00162
701,922	0,00159
702,108	0,00169
702,295	0,00171
702,482	0,00176
702,668	0,00182
702,855	0,00186
703,041	0,00186
703,228	0,00189
703,414	0,00186
703,601	0,00195
703,787	0,002
703,973	0,00199
704,16	0,0019
704,346	0,00188
704,533	0,00189
704,719	0,00182
704,905	0,00171
705,092	0,00173
705,278	0,0017
705,464	0,00173
705,65	0,00172
705,837	0,00164
706,023	0,00168
706,209	0,00176
706,395	0,00177
706,582	0,00176
706,768	0,00176
706,954	0,00191
707,14	0,00188
707,326	0,00185
707,512	0,00178
707,698	0,00178
707,885	0,00179
708,071	0,00172
708,257	0,0017
708,443	0,00176
708,629	0,00179
708,815	0,00174
709,001	0,00164
709,187	0,00156
709,373	0,00163
709,559	0,00162
709,745	0,00165
709,93	0,00152
710,116	0,00153
710,302	0,00161
710,488	0,00164
710,674	0,00159
710,86	0,00165
711,046	0,00177
711,231	0,00179
711,417	0,00176
711,603	0,00174
711,789	0,0017
711,974	0,00183
712,16	0,00176
712,346	0,00169
712,532	0,00156
712,717	0,00148
712,903	0,00147
713,089	0,0014
713,274	0,00138
713,46	0,00133
713,645	0,00139
713,831	0,00147
714,016	0,00147
714,202	0,00161
714,388	0,00172
714,573	0,00176
714,759	0,00186
714,944	0,00188
715,129	0,00183
715,315	0,00187
715,5	0,00189
715,686	0,00178
715,871	0,00161
716,057	0,00162
716,242	0,00169
716,427	0,00151
716,613	0,00151
716,798	0,00142
716,983	0,00136
717,168	0,0013
717,354	0,00133
717,539	0,00137
717,724	0,00144
717,909	0,00159
718,095	0,00161
718,28	0,00146
718,465	0,00149
718,65	0,00149
718,835	0,00146
719,02	0,0015
719,206	0,00156
719,391	0,00157
719,576	0,00143
719,761	0,00149
719,946	0,00143
720,131	0,00137
720,316	0,00137
720,501	0,00137
720,686	0,00139
720,871	0,00146
721,056	0,0014
721,241	0,00139
721,426	0,00134
721,61	0,00155
721,795	0,00149
721,98	0,00145
722,165	0,00151
722,35	0,00165
722,535	0,0016
722,719	0,00162
722,904	0,00163
723,089	0,00162
723,274	0,00165
723,458	0,00159
723,643	0,00147
723,828	0,00148
724,013	0,00143
724,197	0,00134
724,382	0,00117
724,567	0,00122
724,751	0,0012
724,936	0,00112
725,12	0,00118
725,305	0,0012
725,489	0,00128
725,674	0,00124
725,859	0,00124
726,043	0,00128
726,228	0,00141
726,412	0,00141
726,596	0,00138
726,781	0,00136
726,965	0,00143
727,15	0,00144
727,334	0,00136
727,518	0,00118
727,703	0,00125
727,887	0,00125
728,072	0,0013
728,256	0,00121
728,44	0,00121
728,624	0,00117
728,809	0,00114
728,993	0,00109
729,177	0,00106
729,361	0,0011
729,546	0,00124
729,73	0,00125
729,914	0,00104
730,098	0,00092
730,282	0,00088
730,466	0,00093
730,65	0,00109
730,834	0,00111
731,019	0,00112
731,203	0,00116
731,387	0,00119
731,571	0,00109
731,755	0,00103
731,939	0,00116
732,123	0,00108
732,306	0,00107
732,49	0,00103
732,674	0,00097
732,858	0,00091
733,042	0,00086
733,226	0,00087
733,41	0,00085
733,594	0,00088
733,778	0,00085
733,961	0,00089
734,145	0,00105
734,329	0,00117
734,513	0,00115
734,696	0,00111
734,88	0,00118
735,064	0,00119
735,247	0,00113
735,431	0,00115
735,615	0,00114
735,798	0,00115
735,982	0,0011
736,166	0,00116
736,349	0,00111
736,533	0,00117
736,716	0,00123
736,9	0,00114
737,083	0,00116
737,267	0,00108
737,45	0,0009
737,634	0,00095
737,817	0,001
738,001	0,00099
738,184	0,00084
738,368	0,00079
738,551	0,0007
738,734	0,00065
738,918	0,00067
739,101	0,00069
739,284	0,00059
739,468	0,00062
739,651	0,00073
739,834	0,00068
740,018	0,00071
740,201	0,00076
740,384	0,00075
740,567	0,00082
740,75	0,00081
740,934	0,00085
741,117	0,00071
741,3	0,00092
741,483	0,00099
741,666	0,00087
741,849	0,00087
742,032	0,0008
742,215	0,00077
742,399	0,00079
742,582	0,00074
742,765	0,00078
742,948	0,00079
743,131	0,00097
743,314	0,00082
743,496	0,00081
743,679	0,00088
743,862	0,00093
744,045	0,00099
744,228	0,001
744,411	0,00095
744,594	0,00096
744,777	0,00099
744,959	0,00099
745,142	0,00095
745,325	0,00106
745,508	0,00093
745,691	0,00106
745,873	0,00089
746,056	0,00086
746,239	0,00081
746,421	0,00091
746,604	0,00087
746,787	0,00082
746,969	0,00081
747,152	0,00071
747,335	0,00065
747,517	0,00082
747,7	0,00072
747,882	0,00084
748,065	0,00081
748,247	0,00094
748,43	0,00083
748,612	0,00089
748,795	0,00089
748,977	0,00082
749,16	0,00091
749,342	0,00098
749,524	0,00091
749,707	0,00086
749,889	0,00084
750,072	0,00084
750,254	0,00082
750,436	0,00081
750,619	0,00076
750,801	0,00069
750,983	0,00075
751,165	0,00077
751,348	0,00072
751,53	0,00073
751,712	0,00075
751,894	0,00077
752,076	0,00096
752,259	0,0009
752,441	0,00095
752,623	0,00093
752,805	0,00085
752,987	0,00087
753,169	0,00086
753,351	0,00082
753,533	0,0008
753,715	0,00081
753,897	0,00076
754,079	0,00056
754,261	0,00053
754,443	0,00055
754,625	0,00064
754,807	0,00079
754,989	0,00085
755,171	0,0008
755,353	0,00093
755,534	0,00089
755,716	0,00079
755,898	0,00071
756,08	0,00078
756,262	0,00081
756,443	0,0006
756,625	0,00062
756,807	0,00051
756,989	0,00035
757,17	0,00035
757,352	0,00027
757,534	0,00039
757,715	0,00047
757,897	0,00064
758,079	0,00066
758,26	0,00064
758,442	0,00091
758,623	0,00084
758,805	0,00087
758,987	0,0009
759,168	0,0009
759,35	0,0008
759,531	0,00071
759,713	0,00064
759,894	0,00051
760,075	0,0004
760,257	0,00034
760,438	0,00019
760,62	0,00013
760,801	0,00013
760,982	0,00022
761,164	0,00021
761,345	0,00031
761,526	0,00032
761,708	0,0004
761,889	0,00054
762,07	0,00051
762,251	0,00065
762,433	0,00067
762,614	0,00067
762,795	0,0007
762,976	0,0006
763,157	0,00074
763,338	0,00074
763,52	0,00078
763,701	0,00074
763,882	0,00061
764,063	0,00069
764,244	0,00068
764,425	0,0007
764,606	0,0007
764,787	0,00073
764,968	0,0007
765,149	0,00055
765,33	0,00056
765,511	0,00053
765,692	0,00045
765,873	0,00054
766,053	0,00046
766,234	0,00041
766,415	0,00048
766,596	0,0005
766,777	0,00037
766,958	0,00031
767,138	0,00035
767,319	0,00033
767,5	0,00029
767,681	0,00024
767,861	0,0003
768,042	0,0002
768,223	0,00013
768,403	-0,00005
768,584	-0,00005
768,765	0,00005
768,945	-0,00003
769,126	0,00007
769,307	0,00009
769,487	0,00012
769,668	0,00021
769,848	0,0001
770,029	0,00015
770,209	0,00016
770,39	0,00023
770,57	0,00024
770,751	0,0001
770,931	0,00022
771,111	0,00005
771,292	-0
771,472	0,00001
771,653	0,00003
771,833	0,00001
772,013	0,00011
772,194	0,00021
772,374	0,00018
772,554	0,00021
772,734	0,00032
772,915	0,00032
773,095	0,00041
773,275	0,00044
773,455	0,00043
773,635	0,0003
773,816	0,00031
773,996	0,00029
774,176	0,00039
774,356	0,00042
774,536	0,00036
774,716	0,00032
774,896	0,00026
775,076	0,00017
775,256	0,00023
775,436	0,00028
775,616	0,00047
775,796	0,00057
775,976	0,00062
776,156	0,0005
776,336	0,00046
776,516	0,00048
776,696	0,00041
776,876	0,00057
777,056	0,00057
777,235	0,00051
777,415	0,00055
777,595	0,00028
777,775	0,00016
777,955	0,00003
778,134	-0,0001
778,314	0
778,494	-0,00001
778,674	0,00007
778,853	0,00005
779,033	0,0001
779,213	0,00008
779,392	-0,00003
779,572	0,00013
779,751	0,00016
779,931	0,00024
780,111	0,0003
780,29	0,00013
780,47	0,00019
780,649	0,00016
780,829	0,00007
781,008	0,00008
781,188	0,00007
781,367	0,00022
781,546	0,00023
781,726	0,00021
781,905	0,00016
782,085	0,00026
782,264	0,00043
782,443	0,00047
782,623	0,00045
782,802	0,00049
782,981	0,00052
783,161	0,00055
783,34	0,00049
783,519	0,00062
783,698	0,0006
783,878	0,00068
784,057	0,00051
784,236	0,0004
784,415	0,00043
784,594	0,00053
784,773	0,00059
784,952	0,00067
785,132	0,00057
785,311	0,00064
785,49	0,00049
785,669	0,00052
785,848	0,0005
786,027	0,00051
786,206	0,00051
786,385	0,00035
786,564	0,00031
786,743	0,00029
786,922	0,00023
787,1	0,00028
787,279	0,00013
787,458	0,00018
787,637	0,00023
787,816	0,00033
787,995	0,00038
788,174	0,00044
788,352	0,0005
788,531	0,00053
788,71	0,00052
788,889	0,00041
789,067	0,00034
789,246	0,00028
789,425	0,00021
789,603	0,00016
789,782	0,00002
789,961	-0,00001
790,139	-0,00004
790,318	-0,00006
790,496	-0,00006
790,675	0,00001
790,853	0
791,032	-0,00013
791,211	-0,00006
791,389	-0,00009
791,568	-0,00005
791,746	-0,00001
791,924	0,00011
792,103	0,00014
792,281	0,0001
792,46	0
792,638	-0,00003
792,816	0,00009
792,995	0,00028
793,173	0,0003
793,351	0,00042
793,53	0,00046
793,708	0,00044
793,886	0,00048
794,064	0,00042
794,243	0,00056
794,421	0,00063
794,599	0,00062
794,777	0,00048
794,955	0,0005
795,133	0,00051
795,312	0,00039
795,49	0,00021
795,668	0,00022
795,846	0,00012
796,024	0,0003
796,202	0,00018
796,38	0,00008
796,558	-0,00002
796,736	0,00005
796,914	-0,00001
797,092	-0,00015
797,27	-0,00015
797,448	-0,00001
797,626	-0,00011
797,803	-0,00013
797,981	-0,0003
798,159	-0,00026
798,337	-0,00016
798,515	-0,00014
798,693	-0,00015
798,87	-0,00019
799,048	-0,00013
799,226	-0,00011
799,404	-0,00017
799,581	-0,00018
799,759	-0,00023
799,937	-0,00022
800,114	-0,00022
800,292	-0,00024
800,469	-0,00013
800,647	-0,00017
800,825	-0,00012
801,002	-0,00023
801,18	-0,0003
801,357	-0,00025
801,535	-0,00016
801,712	-0,0001
801,89	-0,00005
802,067	-0,00012
802,245	-0,00011
802,422	-0,00029
802,6	-0,00025
802,777	-0,00014
802,954	-0,00006
803,132	0,00007
803,309	0,00008
803,486	0,00012
803,664	0,00008
803,841	0,00021
804,018	0,00023
804,195	0,00023
804,373	0,00023
804,55	0,00036
804,727	0,00027
804,904	0,00032
805,081	0,00042
805,259	0,00031
805,436	0,00008
805,613	0,00016
805,79	-0,00003
805,967	0,00007
806,144	-0,00008
806,321	-0,00003
806,498	-0,00006
806,675	-0,00006
806,852	-0,00009
807,029	-0,00011
807,206	-0,00012
807,383	0,00015
807,56	0,00008
807,737	0,00007
807,914	0,00001
808,091	0,00028
808,268	0,00043
808,444	0,00029
808,621	0,00029
808,798	0,00013
808,975	0,00007
809,152	0,00004
809,328	0,00004
809,505	0,00021
809,682	0,00026
809,858	0,00015
810,035	0,00002
810,212	-0,00025
810,388	-0,00019
810,565	-0,00011
810,742	0,00002
810,918	-0,00009
811,095	-0,00015
811,271	-0,00029
811,448	-0,00044
811,625	-0,00047
811,801	-0,00041
811,978	-0,00038
812,154	-0,00031
812,33	-0,00032
812,507	-0,00032
812,683	-0,00041
812,86	-0,00025
813,036	-0,00007
813,212	0,00008
813,389	0,00003
813,565	-0,00003
813,741	0,00011
813,918	0,0002
814,094	0,0004
814,27	0,00033
814,447	0,00032
814,623	0,00049
814,799	0,00054
814,975	0,00055
815,151	0,00053
815,328	0,00048
815,504	0,0007
815,68	0,00044
815,856	0,00032
816,032	0,00025
816,208	0,00021
816,384	0,00013
816,56	0,00004
816,736	-0,00017
816,912	-0,00025
817,088	-0,00022
817,264	-0,00015
817,44	-0,00043
817,616	-0,00031
817,792	-0,00031
817,968	-0,00038
818,144	-0,00024
818,32	-0,00017
818,495	-0,00006
818,671	-0
818,847	-0,00012
819,023	-0,00016
819,199	-0,00013
819,374	0,00011
819,55	0,00008
819,726	0,00011
819,902	0,00009
820,077	0,00005
820,253	0,00013
820,429	-0,00006
820,604	0,0001
820,78	0,00024
820,956	0,00005
821,131	-0,00005
821,307	-0,00005
821,482	-0,00004
821,658	0,00009
821,833	-0,00011
822,009	-0,00025
822,184	-0,00039
822,36	-0,00022
822,535	-0,00038
822,711	-0,00044
822,886	-0,00034
823,061	-0,00035
823,237	-0,00042
823,412	-0,00045
823,587	-0,0006
823,763	-0,00041
823,938	-0,00026
824,113	-0,00018
824,289	-0,00025
824,464	-0,00009
824,639	0,00004
824,814	-0,00004
824,99	-0,00003
825,165	-0,00005
825,34	0,00013
825,515	0,00019
825,69	0,0002
825,865	0,00018
826,04	0,00015
826,215	0,00032
826,39	0,0004
826,566	0,00048
826,741	0,00065
826,916	0,00081
827,091	0,00066
827,265	0,00063
827,44	0,00073
827,615	0,00075
827,79	0,00071
827,965	0,00069
828,14	0,00053
828,315	0,00046
828,49	0,00037
828,665	0,00028
828,839	0,00007
829,014	0,00023
829,189	0,00013
829,364	-0,00001
829,538	0,00007
829,713	0,00009
829,888	0,00007
830,063	0,00011
830,237	-0,00012
830,412	-0,00002
830,587	0,00005
830,761	0,00024
830,936	0,00022
831,11	0,00021
831,285	0,00019
831,459	0,00019
831,634	0,00002
831,809	0,00003
831,983	0,00011
832,157	0,00021
832,332	-0,00009
832,506	-0,00004
832,681	-0,00019
832,855	-0,00027
833,03	-0,00025
833,204	-0,00024
833,378	-0,00025
833,553	-0,00007
833,727	-0,00009
833,901	-0,00009
834,076	0,00001
834,25	0,00017
834,424	0,00002
834,598	0,00015
834,773	0,00028
834,947	0,00042
835,121	0,00054
835,295	0,00038
835,469	0,00033
835,643	0,00021
835,817	0,00008
835,991	-0,00015
836,166	-0,00017
836,34	-0,00001
836,514	-0,00013
836,688	-0,00005
836,862	-0,00004
837,036	-0,00013
837,21	-0,00001
837,384	-0,00009
837,557	-0
837,731	0,00015
837,905	0,00036
838,079	0,00031
838,253	0,00016
838,427	0,0003
838,601	0,00007
838,774	-0,00019
838,948	-0,00028
839,122	-0,00022
839,296	0,00003
839,469	0,00011
839,643	-0,00019
839,817	-0,00035
839,991	-0,00034
840,164	-0,00023
840,338	-0,00037
840,512	-0,00014
840,685	0,00017
840,859	0,00022
841,032	0,00007
841,206	0,00004
841,379	0,00002
841,553	0,00008
841,726	0,00017
841,9	0,00026
842,073	0,00041
842,247	0,00057
842,42	0,00044
842,594	0,0003
842,767	0,00023
842,94	0,00029
843,114	0,00028
843,287	0,00045
843,46	0,00054
843,634	0,00037
843,807	0,0004
843,98	0,00026
844,154	0,00008
844,327	0,00002
844,5	0,00009
844,673	0,00032
844,846	0,00042
845,02	0,0004
845,193	0,00005
845,366	-0,00007
845,539	0,00007
845,712	0,00007
845,885	-0,00026
846,058	-0,00007
846,231	-0,0001
846,404	-0,00027
846,577	-0,00026
846,75	-0,00027
846,923	-0,00022
847,096	-0,00017
847,269	0,00008
847,442	0,00003
847,615	0,00006
847,788	0,00035
847,961	0,00026
848,133	0,0004
848,306	0,00067
848,479	0,00059
848,652	0,00047
848,825	0,00049
848,997	0,00059
849,17	0,00034
849,343	0,00035
849,515	0,0002
849,688	0,00011
849,861	0,00013
850,033	0,00016
850,206	0
850,379	-0,00012
850,551	-0,00016
850,724	-0,00018
850,896	-0,00025
851,069	0,00014
851,241	0,0001
851,414	0,00023
851,586	0,00009
851,759	0,00013
851,931	0,00008
852,104	-0,00004
852,276	-0,00017
852,449	-0,00013
852,621	-0,00029
852,793	-0,00026
852,966	-0,00037
853,138	-0,00004
853,31	0,00006
853,483	0,00029
853,655	0,00025
853,827	0,00006
853,999	0,00033
854,172	0,00063
854,344	0,00074
854,516	0,00086
854,688	0,00089
854,86	0,00061
855,032	0,00036
855,204	0,00028
855,377	0,00018
855,549	-0,00001
855,721	0,00005
855,893	-0,0001
856,065	-0,00019
856,237	-0,00054
856,409	-0,0006
856,581	-0,00055
856,753	-0,00013
856,924	-0,00016
857,096	-0,00011
857,268	0,00032
857,44	0,00061
857,612	0,0007
857,784	0,0005
857,956	0,00062
858,127	0,00078
858,299	0,00075
858,471	0,00084
858,643	0,00064
858,814	0,00073
858,986	0,00065
859,158	0,00014
859,33	0,00012
859,501	-0,00004
859,673	0,00013
859,844	0,00004
860,016	0,00013
860,188	0,00019
860,359	0,00024
860,531	0,00016
860,702	0,00004
860,874	-0,00016
861,045	0,00014
861,217	-0,00014
861,388	0,00016
861,56	0,00021
861,731	0,00009
861,902	0,00018
862,074	0,00023
862,245	0,00022
862,417	0,0002
862,588	0,00028
862,759	0,00034
862,931	0,00009
863,102	0,00028
863,273	0,00013
863,444	0,00006
863,616	0,00031
863,787	0,00012
863,958	-0,00027
864,129	-0,00035
864,3	-0,0005
864,471	-0,00052
864,642	-0,00027
864,814	-0,00034
864,985	-0,00038
865,156	-0,00046
865,327	-0,00064
865,498	-0,00066
865,669	-0,00061
865,84	-0,00031
866,011	-0,00026
866,182	-0,00007
866,353	-0,00029
866,523	-0,00075
866,694	-0,0003
866,865	-0,0003
867,036	-0,00016
867,207	-0,00002
867,378	-0,00018
867,549	-0,0002
867,719	-0,00023
867,89	-0,00046
868,061	-0,00059
868,232	-0,00049
868,402	-0,00037
868,573	-0,00081
868,744	-0,00076
868,914	-0,00099
869,085	-0,00107
869,256	-0,00112
869,426	-0,00136
869,597	-0,00141
869,767	-0,00121
869,938	-0,0011
870,108	-0,00071
870,279	-0,00068
870,449	-0,0006
870,62	-0,00102
870,79	-0,0008
870,961	-0,00044
871,131	-0,00054
871,302	0,0001
871,472	0,00024
871,642	0,00002
871,813	0,00004
871,983	-0,00018
872,153	-0,00034
872,324	-0,00023
872,494	0,00007
872,664	-0,00016
872,835	-0,00018
873,005	0,00014
873,175	-0,00033
873,345	-0,00052
873,515	-0,00039
873,685	-0,00037
873,856	-0,00049
874,026	-0,0002
874,196	-0,00002
874,366	-0,00007
874,536	0,00003
874,706	-0,00005
874,876	-0,00025
875,046	-0,00051
875,216	-0,00053
875,386	-0,00031
875,556	-0,00022
875,726	-0,00027
875,896	-0,00033
876,066	-0,00049
876,236	-0,00059
876,405	-0,00044
876,575	-0,00075
876,745	-0,00083
876,915	-0,00011
877,085	0,00021
877,254	0,00008
877,424	-0,00001
877,594	0,0001
877,764	0,00014
877,933	0,00008
878,103	0,00021
878,273	0,00023
878,442	0,00028
878,612	0,00032
878,781	0,00002
878,951	-0,00014
879,121	-0,00036
879,29	-0,00059
879,46	-0,0005
879,629	-0,00028
879,799	-0,00011
879,968	0,00015
880,138	0,00017
880,307	0,00033
880,476	0,00061
880,646	0,00067
880,815	0,00062
880,985	0,00084
881,154	0,00099
881,323	0,00083
881,493	0,00051
881,662	0,0001
881,831	0,00015
882	-0,00018
882,17	-0,00016
882,339	-0,00051
882,508	-0,00069
882,677	-0,00052
882,846	-0,00026
883,016	-0,00029
883,185	-0,00009
883,354	-0,00014
883,523	-0,00005
883,692	-0,00044
883,861	-0,00025
884,03	-0,00069
884,199	-0,0004
884,368	-0,00018
884,537	-0,00053
884,706	-0,00064
884,875	-0,00053
885,044	-0,00057
885,213	-0,00017
885,382	-0,00022
885,55	0,00013
885,719	0,00017
885,888	0,0005
886,057	0,00026
886,226	-0,00024
886,395	0,00002
886,563	-0,00039
886,732	-0,00054
886,901	-0,00042
887,069	-0,00063
887,238	-0,00041
887,407	-0,00064
887,575	-0,00051
887,744	-0,00044
887,913	-0,00041
888,081	0,00009
888,25	-0,00003
888,418	0,00013
888,587	0,00013
888,755	-0,00026
888,924	-0,0002
889,092	-0,00024
889,261	-0,00037
889,429	-0,0005
889,598	-0,00053
889,766	-0,00019
889,935	-0,00029
890,103	-0,00029
890,271	-0,00031
890,44	-0,00035
890,608	-0,00042
890,776	-0,00038
890,944	-0,00018
891,113	0,00002
891,281	-0,00004
891,449	-0,00031
891,617	-0,00098
891,786	-0,00136
891,954	-0,00146
892,122	-0,00114
892,29	-0,00084
892,458	-0,00071
892,626	-0,00059
892,794	-0,00079
892,962	-0,00081
893,13	-0,0008
893,298	-0,00047
893,466	0,00019
