Data from Chemiepractica_Absorbance__8__11-33-13-084.txt Node

Date: Mon Dec 09 11:33:13 CET 2024
User: r0948668
Spectrometer: USB4F07138
Trigger mode: 4
Integration Time (sec): 6,000000E-3
Scans to average: 20
Electric dark correction enabled: true
Nonlinearity correction enabled: false
Boxcar width: 5
XAxis mode: Wavelengths
Number of Pixels in Spectrum: 3648
>>>>>Begin Spectral Data<<<<<
176,779	-0
176,999	-0
177,218	-0
177,438	-1,08471
177,658	-0,38136
177,878	-0,31059
178,097	-0,01515
178,317	-0,14255
178,537	0,27706
178,757	0,04901
178,976	0,20966
179,196	0,22475
179,416	0,08259
179,635	-0,05318
179,855	0,0443
180,075	0,05821
180,294	0,06487
180,514	0,01168
180,734	0,05514
180,953	0,04011
181,173	0,06849
181,392	0,05864
181,612	0,04293
181,832	0,05252
182,051	0,04462
182,271	0,03352
182,49	0,00811
182,71	0,00186
182,929	0,01714
183,149	0,00454
183,368	0,00976
183,588	-0,00976
183,807	0,00116
184,027	0,0224
184,246	0,00788
184,466	0,00503
184,685	0,00816
184,905	0,02047
185,124	0,02796
185,344	0,01596
185,563	0,01757
185,782	0,02122
186,002	0,03615
186,221	0,01781
186,44	0,00193
186,66	0,01553
186,879	0,04363
187,099	0,03435
187,318	0,0319
187,537	0,01868
187,756	0,03984
187,976	0,03402
188,195	0,02296
188,414	0,02131
188,634	0,03472
188,853	0,04596
189,072	0,04185
189,291	0,02252
189,511	0,03803
189,73	0,05692
189,949	0,06919
190,168	0,0603
190,387	0,07618
190,607	0,0855
190,826	0,0769
191,045	0,07469
191,264	0,06398
191,483	0,0416
191,702	0,04429
191,921	0,03241
192,141	0,02932
192,36	0,02254
192,579	0,02125
192,798	0,02299
193,017	0,01022
193,236	0,01685
193,455	0,01769
193,674	0,02155
193,893	0,03775
194,112	0,04295
194,331	0,04342
194,55	0,03734
194,769	0,04799
194,988	0,04724
195,207	0,05382
195,426	0,05801
195,645	0,06485
195,864	0,06174
196,083	0,05967
196,302	0,04408
196,521	0,04179
196,739	0,04041
196,958	0,03792
197,177	0,03679
197,396	0,04532
197,615	0,02736
197,834	0,02454
198,053	0,02294
198,271	0,02397
198,49	0,03919
198,709	0,0611
198,928	0,06967
199,147	0,07108
199,365	0,08093
199,584	0,07846
199,803	0,0611
200,022	0,06058
200,24	0,05538
200,459	0,04022
200,678	0,04479
200,897	0,03441
201,115	0,02131
201,334	0,02339
201,553	0,01362
201,771	0,00414
201,99	-0,00924
202,209	0,00938
202,427	0,01848
202,646	0,03897
202,864	0,03217
203,083	0,02231
203,302	0,02566
203,52	0,04249
203,739	0,03289
203,957	0,04646
204,176	0,04763
204,394	0,06206
204,613	0,05944
204,831	0,06461
205,05	0,0595
205,268	0,08383
205,487	0,08794
205,705	0,08716
205,924	0,07588
206,142	0,08602
206,361	0,08878
206,579	0,10424
206,798	0,11376
207,016	0,09132
207,234	0,08593
207,453	0,08298
207,671	0,08596
207,89	0,09338
208,108	0,09533
208,326	0,08551
208,545	0,06319
208,763	0,0671
208,981	0,05163
209,2	0,02707
209,418	0,04248
209,636	0,02997
209,855	0,0237
210,073	0,01257
210,291	0,00469
210,509	-0,00289
210,728	-0,00216
210,946	0,01105
211,164	-0,00498
211,382	-0,00667
211,6	0,00803
211,819	0,00637
212,037	0,01063
212,255	0,00232
212,473	-0,0003
212,691	0,00647
212,909	0,01161
213,128	0,01812
213,346	0,02127
213,564	0,0364
213,782	0,03386
214	0,0292
214,218	0,03613
214,436	0,04544
214,654	0,04802
214,872	0,04583
215,09	0,02463
215,308	0,02603
215,526	0,02836
215,744	0,0197
215,962	0,00651
216,18	-0,00248
216,398	0,01244
216,616	-0,00649
216,834	-0,01495
217,052	-0,00294
217,27	-0,00196
217,488	0,00888
217,706	0,01463
217,924	0,00065
218,142	0,00721
218,36	0,01661
218,578	0,03252
218,795	0,0223
219,013	0,02734
219,231	0,01762
219,449	0,00411
219,667	0,00483
219,885	0,00587
220,102	0,01313
220,32	0,02298
220,538	0,03363
220,756	0,01433
220,973	0,00864
221,191	-0,00114
221,409	0,00948
221,627	0,0198
221,844	0,01934
222,062	0,02701
222,28	0,03396
222,497	0,02042
222,715	0,01724
222,933	-0,00237
223,15	0,00558
223,368	0,02078
223,586	0,03404
223,803	0,04258
224,021	0,04359
224,239	0,04614
224,456	0,04246
224,674	0,03854
224,891	0,03592
225,109	0,03972
225,326	0,04404
225,544	0,05391
225,762	0,03789
225,979	0,04225
226,197	0,03151
226,414	0,02548
226,632	0,02441
226,849	0,01081
227,066	0,02435
227,284	0,02064
227,501	0,03118
227,719	0,03486
227,936	0,02665
228,154	0,02885
228,371	0,02318
228,588	0,02102
228,806	0,02814
229,023	0,03268
229,241	0,04568
229,458	0,03536
229,675	0,04913
229,893	0,03725
230,11	0,04364
230,327	0,03942
230,545	0,04508
230,762	0,02722
230,979	0,03652
231,196	0,03738
231,414	0,03647
231,631	0,02931
231,848	0,01978
232,065	0,01306
232,283	0,00546
232,5	-0,00303
232,717	-0,0124
232,934	-0,02179
233,151	-0,00789
233,368	-0,01976
233,586	-0,03591
233,803	-0,03528
234,02	-0,02687
234,237	-0,0245
234,454	-0,0206
234,671	-0,00144
234,888	-0,00355
235,105	0,02257
235,322	0,03246
235,54	0,03488
235,757	0,03843
235,974	0,05381
236,191	0,04818
236,408	0,04211
236,625	0,04385
236,842	0,03389
237,059	0,02505
237,276	0,0238
237,493	0,0125
237,71	0,01234
237,926	-0,00155
238,143	-0,00465
238,36	-0,00504
238,577	-0,00546
238,794	-0,00545
239,011	0,00154
239,228	0,00084
239,445	0,00213
239,662	0,01337
239,878	0,03139
240,095	0,02522
240,312	0,04748
240,529	0,06128
240,746	0,06344
240,963	0,07172
241,179	0,0822
241,396	0,08612
241,613	0,08149
241,83	0,08304
242,046	0,07885
242,263	0,06811
242,48	0,06639
242,697	0,04846
242,913	0,04641
243,13	0,03668
243,347	0,03531
243,563	0,02829
243,78	0,02798
243,997	0,03804
244,213	0,03932
244,43	0,0474
244,646	0,04851
244,863	0,05511
245,08	0,06472
245,296	0,04912
245,513	0,05048
245,729	0,04931
245,946	0,05512
246,162	0,04388
246,379	0,04901
246,595	0,05114
246,812	0,04039
247,028	0,04215
247,245	0,03964
247,461	0,03724
247,678	0,03567
247,894	0,04802
248,111	0,04099
248,327	0,03448
248,544	0,02918
248,76	0,02599
248,976	0,02733
249,193	0,02571
249,409	0,01742
249,626	0,01315
249,842	0,01647
250,058	0,02567
250,275	0,01627
250,491	0,02386
250,707	0,02384
250,924	0,03001
251,14	0,0369
251,356	0,0322
251,572	0,03629
251,789	0,0472
252,005	0,05905
252,221	0,05459
252,437	0,06021
252,654	0,06371
252,87	0,05526
253,086	0,05957
253,302	0,06312
253,518	0,04434
253,735	0,04051
253,951	0,03985
254,167	0,0365
254,383	0,02253
254,599	0,02537
254,815	0,01919
255,031	0,0212
255,247	0,02022
255,463	0,01471
255,68	0,02457
255,896	0,03566
256,112	0,03639
256,328	0,0356
256,544	0,04117
256,76	0,06092
256,976	0,05557
257,192	0,0614
257,408	0,06068
257,624	0,0687
257,84	0,07017
258,056	0,07237
258,272	0,07559
258,487	0,07574
258,703	0,07664
258,919	0,06961
259,135	0,05383
259,351	0,0613
259,567	0,06165
259,783	0,05821
259,999	0,06309
260,215	0,06737
260,43	0,05473
260,646	0,05285
260,862	0,0625
261,078	0,05938
261,294	0,0559
261,509	0,07282
261,725	0,07332
261,941	0,06585
262,157	0,06924
262,372	0,06271
262,588	0,06084
262,804	0,06528
263,019	0,05198
263,235	0,04986
263,451	0,05475
263,667	0,05767
263,882	0,05957
264,098	0,07469
264,313	0,07643
264,529	0,07011
264,745	0,0735
264,96	0,06629
265,176	0,06312
265,391	0,06815
265,607	0,05584
265,823	0,04976
266,038	0,04717
266,254	0,03398
266,469	0,02153
266,685	0,01538
266,9	0,01406
267,116	0,01733
267,331	0,02863
267,547	0,03249
267,762	0,04059
267,978	0,04878
268,193	0,04699
268,408	0,05607
268,624	0,06113
268,839	0,05431
269,055	0,05281
269,27	0,05646
269,485	0,05421
269,701	0,05181
269,916	0,04584
270,132	0,04828
270,347	0,05097
270,562	0,06012
270,777	0,05281
270,993	0,05007
271,208	0,04809
271,423	0,06742
271,639	0,07274
271,854	0,05394
272,069	0,04707
272,284	0,0465
272,5	0,03126
272,715	0,02685
272,93	0,01707
273,145	0,01041
273,36	0,01795
273,576	0,02329
273,791	0,01275
274,006	0,0034
274,221	0,01641
274,436	0,02546
274,651	0,02323
274,866	0,03259
275,081	0,03759
275,296	0,0416
275,512	0,04644
275,727	0,04274
275,942	0,04253
276,157	0,0372
276,372	0,04269
276,587	0,05278
276,802	0,048
277,017	0,05511
277,232	0,05459
277,447	0,05094
277,662	0,04053
277,877	0,03581
278,092	0,02768
278,306	0,03056
278,521	0,04332
278,736	0,04241
278,951	0,03351
279,166	0,0238
279,381	0,01868
279,596	0,00974
279,811	0,00381
280,025	0,01391
280,24	0,00988
280,455	0,01309
280,67	0,01081
280,885	0,00693
281,099	0,00357
281,314	0,00106
281,529	0,01115
281,744	0,01646
281,959	0,02663
282,173	0,04049
282,388	0,04739
282,603	0,04398
282,817	0,05101
283,032	0,05326
283,247	0,04861
283,461	0,05163
283,676	0,05204
283,891	0,04968
284,105	0,05662
284,32	0,06336
284,535	0,05348
284,749	0,05229
284,964	0,07709
285,178	0,07517
285,393	0,07867
285,607	0,07119
285,822	0,07824
286,036	0,07665
286,251	0,07798
286,465	0,07403
286,68	0,06674
286,894	0,07125
287,109	0,06637
287,323	0,05449
287,538	0,05794
287,752	0,04818
287,967	0,05512
288,181	0,03955
288,396	0,05698
288,61	0,06501
288,824	0,06856
289,039	0,06776
289,253	0,0566
289,467	0,05962
289,682	0,05515
289,896	0,04677
290,11	0,04662
290,325	0,05234
290,539	0,05772
290,753	0,04195
290,968	0,03245
291,182	0,02369
291,396	0,02233
291,61	0,03144
291,825	0,03408
292,039	0,03852
292,253	0,0432
292,467	0,04368
292,681	0,03544
292,896	0,03339
293,11	0,03466
293,324	0,0405
293,538	0,03433
293,752	0,04148
293,966	0,04129
294,18	0,03388
294,394	0,02586
294,608	0,02819
294,823	0,02827
295,037	0,03194
295,251	0,04415
295,465	0,04829
295,679	0,03957
295,893	0,04831
296,107	0,03858
296,321	0,05056
296,535	0,05023
296,749	0,05434
296,963	0,04229
297,177	0,04055
297,391	0,03961
297,604	0,02198
297,818	0,01446
298,032	0,01216
298,246	0,00707
298,46	0,00918
298,674	0,00331
298,888	0,0101
299,102	0,01999
299,315	0,03118
299,529	0,03379
299,743	0,03423
299,957	0,03706
300,171	0,03926
300,385	0,05054
300,598	0,05501
300,812	0,05858
301,026	0,04847
301,24	0,04904
301,453	0,03655
301,667	0,03784
301,881	0,0414
302,094	0,02955
302,308	0,03442
302,522	0,04758
302,735	0,04447
302,949	0,04147
303,163	0,03505
303,376	0,03991
303,59	0,04377
303,803	0,04437
304,017	0,04033
304,231	0,03825
304,444	0,05137
304,658	0,05149
304,871	0,03851
305,085	0,03665
305,298	0,03773
305,512	0,03643
305,725	0,03436
305,939	0,02307
306,152	0,02509
306,366	0,01708
306,579	0,02382
306,793	0,02575
307,006	0,03205
307,22	0,03322
307,433	0,02762
307,646	0,02358
307,86	0,02527
308,073	0,0266
308,286	0,02449
308,5	0,02356
308,713	0,02312
308,926	0,02091
309,14	0,01996
309,353	0,01492
309,566	0,01289
309,78	0,01355
309,993	0,02007
310,206	0,02676
310,419	0,02747
310,633	0,03038
310,846	0,03933
311,059	0,03845
311,272	0,03286
311,486	0,02827
311,699	0,02418
311,912	0,02873
312,125	0,03324
312,338	0,02592
312,551	0,02449
312,764	0,02076
312,978	0,02305
313,191	0,02502
313,404	0,02214
313,617	0,02331
313,83	0,02907
314,043	0,03593
314,256	0,03408
314,469	0,03217
314,682	0,03173
314,895	0,02779
315,108	0,03565
315,321	0,03319
315,534	0,02627
315,747	0,03641
315,96	0,04288
316,173	0,03951
316,386	0,03343
316,599	0,03368
316,812	0,03709
317,025	0,05178
317,237	0,05256
317,45	0,0417
317,663	0,04044
317,876	0,04326
318,089	0,04945
318,302	0,03289
318,515	0,02648
318,727	0,02533
318,94	0,01709
319,153	0,00806
319,366	-0,00319
319,578	-0,00587
319,791	0,00847
320,004	-0,0043
320,217	-0,00221
320,429	-0,00517
320,642	0,0077
320,855	0,00889
321,067	0,00881
321,28	0,01573
321,493	0,02304
321,705	0,02866
321,918	0,03699
322,131	0,03151
322,343	0,04502
322,556	0,04751
322,768	0,04578
322,981	0,0388
323,194	0,04278
323,406	0,04286
323,619	0,04192
323,831	0,04859
324,044	0,05251
324,256	0,04831
324,469	0,04248
324,681	0,04643
324,894	0,0439
325,106	0,0451
325,319	0,04211
325,531	0,04338
325,743	0,03489
325,956	0,03142
326,168	0,02817
326,381	0,02236
326,593	0,01779
326,805	0,02507
327,018	0,02523
327,23	0,01078
327,442	0,01575
327,655	0,01779
327,867	0,02098
328,079	0,032
328,292	0,04078
328,504	0,03647
328,716	0,02889
328,928	0,03689
329,141	0,03031
329,353	0,03505
329,565	0,03893
329,777	0,03497
329,99	0,03757
330,202	0,03594
330,414	0,03483
330,626	0,02928
330,838	0,03209
331,05	0,03365
331,263	0,02344
331,475	0,03048
331,687	0,02433
331,899	0,03005
332,111	0,02896
332,323	0,03154
332,535	0,0298
332,747	0,02717
332,959	0,0257
333,171	0,02985
333,383	0,0309
333,595	0,04279
333,807	0,0378
334,019	0,02783
334,231	0,02764
334,443	0,02388
334,655	0,01993
334,867	0,02173
335,079	0,02521
335,291	0,02444
335,503	0,03061
335,714	0,0352
335,926	0,02975
336,138	0,02368
336,35	0,03048
336,562	0,03584
336,774	0,03865
336,986	0,03898
337,197	0,03388
337,409	0,03325
337,621	0,03532
337,833	0,03052
338,044	0,03072
338,256	0,02892
338,468	0,03579
338,68	0,04079
338,891	0,03332
339,103	0,03397
339,315	0,03113
339,526	0,03289
339,738	0,02885
339,95	0,02743
340,161	0,02974
340,373	0,01491
340,585	0,01531
340,796	0,01899
341,008	0,01633
341,219	0,01692
341,431	0,01701
341,642	0,02523
341,854	0,02318
342,065	0,03476
342,277	0,03022
342,489	0,02378
342,7	0,03814
342,912	0,04393
343,123	0,04456
343,334	0,04635
343,546	0,04127
343,757	0,03966
343,969	0,03234
344,18	0,0352
344,392	0,02151
344,603	0,0326
344,814	0,03481
345,026	0,0346
345,237	0,02724
345,448	0,02366
345,66	0,01959
345,871	0,02752
346,082	0,03267
346,294	0,03421
346,505	0,03771
346,716	0,04335
346,927	0,04139
347,139	0,04207
347,35	0,03998
347,561	0,037
347,772	0,03834
347,984	0,05042
348,195	0,04855
348,406	0,0378
348,617	0,04435
348,828	0,04133
349,039	0,03917
349,251	0,03662
349,462	0,02823
349,673	0,02262
349,884	0,02889
350,095	0,03246
350,306	0,02097
350,517	0,02461
350,728	0,02705
350,939	0,01996
351,15	0,01938
351,361	0,01974
351,572	0,02686
351,783	0,03397
351,994	0,03835
352,205	0,03714
352,416	0,03108
352,627	0,0384
352,838	0,04306
353,049	0,04262
353,26	0,04367
353,471	0,03822
353,682	0,04161
353,893	0,03671
354,103	0,03034
354,314	0,02882
354,525	0,02958
354,736	0,03092
354,947	0,03406
355,157	0,02608
355,368	0,02655
355,579	0,02425
355,79	0,02799
356,001	0,03116
356,211	0,03405
356,422	0,02963
356,633	0,03522
356,843	0,03002
357,054	0,029
357,265	0,02407
357,476	0,02761
357,686	0,02435
357,897	0,027
358,107	0,029
358,318	0,02744
358,529	0,02815
358,739	0,04493
358,95	0,03849
359,16	0,04547
359,371	0,04113
359,582	0,03204
359,792	0,0311
360,003	0,03506
360,213	0,03352
360,424	0,03147
360,634	0,03443
360,845	0,02994
361,055	0,02187
361,266	0,02577
361,476	0,03055
361,686	0,03171
361,897	0,03829
362,107	0,04007
362,318	0,03791
362,528	0,03563
362,738	0,03441
362,949	0,02969
363,159	0,02807
363,369	0,02217
363,58	0,0149
363,79	0,01036
364	0,01302
364,211	0,00697
364,421	0,00424
364,631	0,01095
364,842	0,01268
365,052	0,01768
365,262	0,01424
365,472	0,01949
365,682	0,02419
365,893	0,02966
366,103	0,03194
366,313	0,03043
366,523	0,0374
366,733	0,03022
366,943	0,03145
367,154	0,03682
367,364	0,03774
367,574	0,04178
367,784	0,03925
367,994	0,04116
368,204	0,04274
368,414	0,03932
368,624	0,03766
368,834	0,03971
369,044	0,04805
369,254	0,04376
369,464	0,03989
369,674	0,04127
369,884	0,0402
370,094	0,03881
370,304	0,03038
370,514	0,02879
370,724	0,02654
370,934	0,02616
371,144	0,01962
371,353	0,0182
371,563	0,01989
371,773	0,02186
371,983	0,01553
372,193	0,01654
372,403	0,01648
372,612	0,01828
372,822	0,02578
373,032	0,02632
373,242	0,02706
373,452	0,02835
373,661	0,0308
373,871	0,02416
374,081	0,02716
374,29	0,02974
374,5	0,02574
374,71	0,0229
374,92	0,02259
375,129	0,01747
375,339	0,0187
375,549	0,02085
375,758	0,024
375,968	0,02095
376,177	0,02353
376,387	0,01476
376,597	0,0171
376,806	0,02461
377,016	0,02604
377,225	0,03051
377,435	0,02863
377,644	0,02523
377,854	0,02523
378,063	0,02701
378,273	0,02566
378,482	0,03057
378,692	0,03741
378,901	0,03685
379,111	0,03481
379,32	0,03979
379,529	0,03748
379,739	0,03888
379,948	0,03975
380,158	0,03995
380,367	0,0402
380,576	0,04127
380,786	0,03168
380,995	0,0318
381,204	0,03305
381,414	0,03076
381,623	0,02902
381,832	0,03151
382,041	0,02898
382,251	0,03424
382,46	0,03019
382,669	0,02586
382,878	0,02858
383,088	0,03183
383,297	0,02851
383,506	0,02471
383,715	0,02493
383,924	0,02135
384,133	0,021
384,342	0,0231
384,552	0,02002
384,761	0,02438
384,97	0,02805
385,179	0,02763
385,388	0,02871
385,597	0,0271
385,806	0,02755
386,015	0,02623
386,224	0,03075
386,433	0,02783
386,642	0,02545
386,851	0,02515
387,06	0,028
387,269	0,02781
387,478	0,02471
387,687	0,02521
387,896	0,02803
388,105	0,02608
388,314	0,02534
388,523	0,02132
388,731	0,02296
388,94	0,02348
389,149	0,02629
389,358	0,02341
389,567	0,02281
389,776	0,02307
389,984	0,02402
390,193	0,02314
390,402	0,02443
390,611	0,02405
390,819	0,0227
391,028	0,02382
391,237	0,02394
391,446	0,0187
391,654	0,01852
391,863	0,01469
392,072	0,01589
392,28	0,01393
392,489	0,01435
392,698	0,01185
392,906	0,01475
393,115	0,018
393,324	0,01787
393,532	0,01781
393,741	0,01998
393,949	0,01762
394,158	0,01772
394,366	0,01629
394,575	0,01454
394,783	0,01459
394,992	0,01676
395,2	0,01435
395,409	0,0141
395,617	0,0122
395,826	0,01411
396,034	0,0111
396,243	0,01233
396,451	0,01248
396,66	0,01769
396,868	0,01839
397,076	0,01599
397,285	0,01376
397,493	0,01515
397,701	0,01366
397,91	0,01465
398,118	0,01329
398,326	0,01686
398,535	0,01503
398,743	0,01733
398,951	0,01169
399,159	0,01401
399,368	0,01763
399,576	0,01875
399,784	0,01833
399,992	0,01891
400,201	0,01884
400,409	0,0164
400,617	0,0154
400,825	0,01771
401,033	0,01706
401,241	0,01969
401,45	0,02046
401,658	0,01915
401,866	0,02111
402,074	0,02215
402,282	0,02193
402,49	0,02242
402,698	0,02298
402,906	0,02099
403,114	0,01999
403,322	0,01865
403,53	0,01849
403,738	0,01657
403,946	0,01502
404,154	0,01503
404,362	0,01395
404,57	0,0126
404,778	0,0107
404,986	0,01293
405,194	0,01426
405,402	0,01548
405,609	0,01559
405,817	0,01346
406,025	0,0143
406,233	0,01588
406,441	0,01584
406,649	0,01585
406,856	0,01709
407,064	0,01843
407,272	0,01794
407,48	0,01977
407,687	0,01921
407,895	0,02068
408,103	0,02067
408,311	0,02131
408,518	0,0188
408,726	0,01887
408,934	0,02009
409,141	0,02035
409,349	0,0188
409,557	0,01879
409,764	0,0164
409,972	0,0165
410,18	0,01547
410,387	0,0167
410,595	0,01593
410,802	0,01635
411,01	0,01543
411,217	0,01418
411,425	0,01484
411,632	0,01562
411,84	0,01426
412,047	0,01289
412,255	0,01235
412,462	0,01312
412,67	0,01235
412,877	0,01359
413,085	0,0138
413,292	0,01473
413,499	0,01428
413,707	0,0136
413,914	0,01438
414,122	0,01417
414,329	0,01598
414,536	0,01516
414,744	0,0144
414,951	0,01616
415,158	0,01429
415,366	0,01458
415,573	0,01387
415,78	0,01368
415,987	0,01221
416,195	0,01183
416,402	0,01105
416,609	0,01278
416,816	0,01415
417,023	0,01588
417,231	0,0153
417,438	0,01512
417,645	0,0153
417,852	0,01303
418,059	0,01238
418,266	0,01241
418,473	0,01235
418,68	0,01544
418,888	0,01325
419,095	0,01245
419,302	0,01171
419,509	0,01125
419,716	0,01095
419,923	0,0116
420,13	0,01252
420,337	0,01442
420,544	0,01479
420,751	0,01393
420,958	0,01412
421,165	0,01461
421,371	0,0143
421,578	0,01354
421,785	0,0132
421,992	0,01436
422,199	0,01436
422,406	0,01526
422,613	0,01465
422,82	0,01613
423,026	0,01716
423,233	0,01609
423,44	0,01501
423,647	0,01446
423,854	0,01491
424,06	0,01464
424,267	0,01296
424,474	0,01198
424,681	0,01208
424,887	0,01171
425,094	0,01069
425,301	0,01176
425,507	0,01066
425,714	0,01123
425,921	0,01215
426,127	0,01098
426,334	0,01053
426,54	0,01253
426,747	0,01365
426,954	0,01376
427,16	0,01286
427,367	0,01219
427,573	0,01082
427,78	0,01094
427,986	0,01127
428,193	0,01053
428,399	0,01236
428,606	0,01322
428,812	0,01333
429,019	0,01239
429,225	0,01243
429,432	0,01503
429,638	0,01537
429,845	0,01524
430,051	0,01624
430,257	0,01595
430,464	0,01744
430,67	0,01571
430,876	0,01519
431,083	0,01498
431,289	0,01653
431,495	0,01667
431,702	0,01398
431,908	0,0133
432,114	0,01255
432,32	0,01177
432,527	0,01184
432,733	0,01021
432,939	0,01062
433,145	0,01083
433,351	0,01118
433,558	0,0109
433,764	0,01089
433,97	0,01084
434,176	0,01204
434,382	0,01354
434,588	0,01276
434,794	0,01222
435,001	0,0135
435,207	0,01378
435,413	0,01307
435,619	0,01303
435,825	0,01242
436,031	0,01305
436,237	0,01381
436,443	0,01366
436,649	0,01344
436,855	0,01524
437,061	0,01701
437,267	0,01671
437,473	0,01623
437,679	0,01771
437,884	0,01686
438,09	0,01619
438,296	0,01432
438,502	0,01373
438,708	0,01308
438,914	0,01263
439,12	0,012
439,325	0,01107
439,531	0,0106
439,737	0,01054
439,943	0,01016
440,149	0,01095
440,354	0,01197
440,56	0,01257
440,766	0,01275
440,972	0,01369
441,177	0,01462
441,383	0,01484
441,589	0,01543
441,794	0,01588
442	0,01662
442,206	0,01676
442,411	0,01608
442,617	0,01523
442,822	0,01628
443,028	0,01646
443,234	0,01661
443,439	0,01617
443,645	0,01543
443,85	0,01581
444,056	0,0159
444,261	0,01648
444,467	0,0159
444,672	0,01627
444,878	0,01722
445,083	0,01734
445,289	0,01788
445,494	0,01729
445,699	0,01656
445,905	0,01705
446,11	0,01703
446,316	0,01746
446,521	0,01662
446,726	0,01685
446,932	0,01669
447,137	0,0167
447,342	0,01539
447,548	0,01504
447,753	0,01536
447,958	0,01586
448,164	0,01537
448,369	0,0143
448,574	0,01304
448,779	0,01292
448,984	0,01334
449,19	0,01357
449,395	0,01338
449,6	0,01421
449,805	0,01436
450,01	0,01375
450,215	0,01384
450,421	0,01465
450,626	0,01523
450,831	0,0151
451,036	0,01476
451,241	0,01502
451,446	0,01418
451,651	0,01392
451,856	0,01402
452,061	0,01445
452,266	0,01479
452,471	0,015
452,676	0,01474
452,881	0,01483
453,086	0,01624
453,291	0,01679
453,496	0,01607
453,701	0,01724
453,906	0,01799
454,111	0,01748
454,316	0,01773
454,52	0,0182
454,725	0,01734
454,93	0,01767
455,135	0,01788
455,34	0,01732
455,545	0,01796
455,749	0,01869
455,954	0,0185
456,159	0,01845
456,364	0,01926
456,568	0,01938
456,773	0,02
456,978	0,02099
457,182	0,0213
457,387	0,02143
457,592	0,02176
457,796	0,02113
458,001	0,02118
458,206	0,02137
458,41	0,02091
458,615	0,0204
458,82	0,0203
459,024	0,02095
459,229	0,02125
459,433	0,02079
459,638	0,02097
459,842	0,02132
460,047	0,02157
460,251	0,02154
460,456	0,02145
460,66	0,0219
460,865	0,02243
461,069	0,02253
461,274	0,02178
461,478	0,02142
461,682	0,02188
461,887	0,02235
462,091	0,022
462,296	0,02254
462,5	0,02304
462,704	0,02323
462,909	0,0231
463,113	0,02273
463,317	0,02278
463,522	0,02349
463,726	0,02438
463,93	0,02419
464,134	0,02409
464,339	0,02514
464,543	0,02485
464,747	0,02447
464,951	0,02484
465,155	0,02506
465,36	0,02592
465,564	0,0256
465,768	0,02521
465,972	0,02531
466,176	0,02589
466,38	0,02566
466,584	0,02535
466,788	0,0256
466,993	0,02616
467,197	0,02637
467,401	0,02675
467,605	0,02639
467,809	0,02732
468,013	0,02794
468,217	0,02776
468,421	0,02804
468,625	0,02848
468,829	0,02853
469,033	0,02883
469,236	0,02949
469,44	0,02874
469,644	0,02887
469,848	0,02951
470,052	0,0302
470,256	0,02911
470,46	0,02939
470,664	0,02934
470,867	0,02948
471,071	0,0299
471,275	0,03047
471,479	0,03023
471,683	0,03086
471,886	0,03123
472,09	0,03139
472,294	0,0306
472,497	0,03129
472,701	0,03146
472,905	0,03202
473,109	0,03278
473,312	0,03273
473,516	0,03284
473,719	0,03253
473,923	0,03301
474,127	0,03339
474,33	0,03302
474,534	0,03379
474,737	0,03429
474,941	0,03439
475,145	0,03411
475,348	0,03341
475,552	0,03347
475,755	0,03338
475,959	0,03429
476,162	0,03438
476,366	0,03421
476,569	0,03472
476,772	0,03501
476,976	0,03532
477,179	0,0357
477,383	0,03615
477,586	0,03621
477,789	0,03654
477,993	0,03696
478,196	0,03703
478,399	0,03739
478,603	0,03757
478,806	0,03784
479,009	0,03771
479,213	0,03735
479,416	0,03723
479,619	0,03769
479,822	0,0385
480,026	0,03897
480,229	0,03895
480,432	0,03944
480,635	0,03952
480,838	0,04001
481,041	0,03992
481,245	0,03995
481,448	0,04041
481,651	0,04116
481,854	0,04133
482,057	0,04153
482,26	0,04182
482,463	0,04214
482,666	0,04198
482,869	0,04218
483,072	0,04224
483,275	0,04285
483,478	0,04321
483,681	0,04383
483,884	0,04404
484,087	0,04424
484,29	0,04486
484,493	0,04514
484,696	0,04562
484,899	0,0463
485,102	0,04677
485,305	0,0469
485,508	0,04742
485,71	0,04788
485,913	0,0482
486,116	0,04861
486,319	0,04887
486,522	0,04866
486,725	0,04868
486,927	0,04892
487,13	0,04928
487,333	0,04974
487,536	0,05049
487,738	0,05061
487,941	0,05078
488,144	0,05105
488,346	0,051
488,549	0,05138
488,752	0,05219
488,954	0,05316
489,157	0,05334
489,359	0,05345
489,562	0,05366
489,765	0,05356
489,967	0,05412
490,17	0,0546
490,372	0,05515
490,575	0,05548
490,777	0,05587
490,98	0,05583
491,182	0,05583
491,385	0,05652
491,587	0,05705
491,79	0,05755
491,992	0,05824
492,195	0,05839
492,397	0,05883
492,599	0,05895
492,802	0,05936
493,004	0,05992
493,207	0,06059
493,409	0,06105
493,611	0,06125
493,814	0,0615
494,016	0,06156
494,218	0,06176
494,42	0,0622
494,623	0,06259
494,825	0,0632
495,027	0,06353
495,229	0,06372
495,432	0,064
495,634	0,06438
495,836	0,06492
496,038	0,06509
496,24	0,06567
496,442	0,06604
496,645	0,06652
496,847	0,06691
497,049	0,06706
497,251	0,06757
497,453	0,06807
497,655	0,06832
497,857	0,06887
498,059	0,06935
498,261	0,06982
498,463	0,07044
498,665	0,07108
498,867	0,07141
499,069	0,07183
499,271	0,07219
499,473	0,07272
499,675	0,073
499,877	0,07354
500,079	0,07377
500,281	0,07404
500,482	0,07467
500,684	0,0749
500,886	0,07527
501,088	0,0758
501,29	0,07651
501,492	0,07698
501,693	0,07752
501,895	0,07828
502,097	0,07884
502,299	0,07937
502,5	0,07982
502,702	0,08032
502,904	0,08107
503,106	0,08167
503,307	0,08221
503,509	0,08246
503,711	0,08303
503,912	0,08369
504,114	0,08394
504,315	0,08429
504,517	0,08483
504,719	0,0857
504,92	0,08617
505,122	0,08652
505,323	0,08686
505,525	0,08722
505,726	0,08779
505,928	0,08846
506,129	0,08884
506,331	0,08957
506,532	0,09044
506,734	0,09102
506,935	0,09125
507,137	0,09186
507,338	0,09227
507,539	0,09264
507,741	0,09338
507,942	0,09382
508,143	0,09427
508,345	0,09461
508,546	0,09497
508,747	0,09558
508,949	0,09629
509,15	0,09679
509,351	0,09717
509,553	0,09758
509,754	0,09846
509,955	0,09895
510,156	0,09971
510,357	0,10032
510,559	0,10096
510,76	0,10158
510,961	0,10204
511,162	0,10244
511,363	0,10314
511,564	0,10378
511,766	0,10463
511,967	0,10536
512,168	0,10603
512,369	0,10661
512,57	0,10734
512,771	0,10845
512,972	0,1091
513,173	0,10979
513,374	0,11035
513,575	0,11101
513,776	0,11175
513,977	0,11206
514,178	0,11267
514,379	0,11346
514,58	0,11409
514,781	0,11488
514,981	0,11533
515,182	0,11575
515,383	0,11621
515,584	0,11678
515,785	0,11744
515,986	0,11806
516,187	0,11916
516,387	0,11968
516,588	0,12005
516,789	0,12072
516,99	0,12122
517,19	0,12184
517,391	0,12289
517,592	0,12381
517,793	0,12468
517,993	0,12542
518,194	0,12593
518,395	0,1265
518,595	0,12737
518,796	0,12824
518,996	0,12898
519,197	0,12938
519,398	0,12982
519,598	0,13053
519,799	0,13094
519,999	0,13164
520,2	0,13229
520,4	0,13307
520,601	0,13387
520,801	0,13439
521,002	0,13496
521,202	0,13565
521,403	0,1365
521,603	0,13736
521,804	0,13769
522,004	0,1385
522,204	0,13904
522,405	0,13964
522,605	0,14038
522,806	0,14092
523,006	0,1416
523,206	0,14208
523,407	0,14292
523,607	0,14374
523,807	0,14444
524,007	0,14536
524,208	0,14583
524,408	0,14646
524,608	0,14722
524,808	0,14797
525,009	0,1488
525,209	0,14955
525,409	0,15047
525,609	0,15083
525,809	0,15151
526,009	0,15203
526,209	0,15263
526,41	0,15356
526,61	0,15456
526,81	0,15525
527,01	0,15584
527,21	0,15624
527,41	0,15699
527,61	0,15775
527,81	0,15841
528,01	0,15893
528,21	0,15972
528,41	0,16018
528,61	0,16074
528,81	0,1613
529,01	0,16176
529,21	0,16247
529,41	0,16312
529,609	0,16353
529,809	0,16396
530,009	0,16468
530,209	0,16549
530,409	0,16601
530,609	0,16679
530,808	0,16745
531,008	0,1681
531,208	0,169
531,408	0,16974
531,608	0,17046
531,807	0,17115
532,007	0,17179
532,207	0,1724
532,406	0,17288
532,606	0,17362
532,806	0,1744
533,005	0,17508
533,205	0,17534
533,405	0,17569
533,604	0,17622
533,804	0,17692
534,003	0,17742
534,203	0,17778
534,403	0,17823
534,602	0,17865
534,802	0,17914
535,001	0,17949
535,201	0,17971
535,4	0,18024
535,6	0,18075
535,799	0,18119
535,998	0,18162
536,198	0,18211
536,397	0,18289
536,597	0,1834
536,796	0,18403
536,995	0,1845
537,195	0,18498
537,394	0,18569
537,594	0,18641
537,793	0,18692
537,992	0,18739
538,191	0,18785
538,391	0,1884
538,59	0,1888
538,789	0,18914
538,988	0,18945
539,188	0,18963
539,387	0,19034
539,586	0,19098
539,785	0,19137
539,984	0,19178
540,184	0,19207
540,383	0,19257
540,582	0,19289
540,781	0,19348
540,98	0,19419
541,179	0,19483
541,378	0,19545
541,577	0,19548
541,776	0,19562
541,975	0,19602
542,174	0,19636
542,373	0,19684
542,572	0,197
542,771	0,19736
542,97	0,1976
543,169	0,19771
543,368	0,19796
543,567	0,19844
543,766	0,19886
543,965	0,1992
544,164	0,19943
544,362	0,20006
544,561	0,20039
544,76	0,20091
544,959	0,20126
545,158	0,20162
545,356	0,20205
545,555	0,20235
545,754	0,20252
545,953	0,20286
546,151	0,20314
546,35	0,20343
546,549	0,20358
546,748	0,20385
546,946	0,204
547,145	0,20429
547,344	0,20459
547,542	0,20482
547,741	0,20514
547,939	0,20535
548,138	0,20546
548,337	0,20572
548,535	0,20595
548,734	0,20601
548,932	0,2062
549,131	0,20634
549,329	0,20657
549,528	0,20672
549,726	0,20701
549,925	0,20721
550,123	0,20754
550,322	0,20788
550,52	0,20812
550,718	0,20831
550,917	0,20846
551,115	0,20861
551,313	0,20899
551,512	0,20915
551,71	0,20923
551,908	0,20941
552,107	0,20955
552,305	0,20979
552,503	0,20996
552,702	0,20995
552,9	0,21029
553,098	0,21067
553,296	0,21104
553,495	0,21105
553,693	0,21135
553,891	0,21167
554,089	0,21193
554,287	0,21231
554,485	0,21255
554,683	0,21276
554,882	0,21309
555,08	0,21335
555,278	0,21346
555,476	0,21369
555,674	0,21408
555,872	0,21414
556,07	0,21426
556,268	0,21451
556,466	0,21456
556,664	0,21483
556,862	0,21504
557,06	0,21539
557,258	0,21562
557,456	0,21608
557,654	0,21617
557,851	0,21633
558,049	0,21649
558,247	0,21711
558,445	0,21724
558,643	0,21755
558,841	0,21778
559,039	0,2181
559,236	0,21844
559,434	0,21875
559,632	0,21892
559,83	0,2193
560,027	0,21957
560,225	0,21999
560,423	0,21995
560,62	0,22037
560,818	0,22054
561,016	0,22084
561,213	0,22126
561,411	0,2214
561,609	0,22153
561,806	0,22179
562,004	0,22207
562,202	0,22246
562,399	0,22291
562,597	0,22343
562,794	0,22376
562,992	0,22432
563,189	0,22474
563,387	0,22508
563,584	0,22555
563,782	0,22593
563,979	0,22645
564,177	0,22698
564,374	0,22759
564,571	0,22807
564,769	0,22821
564,966	0,22843
565,164	0,22863
565,361	0,22884
565,558	0,22922
565,756	0,2295
565,953	0,23009
566,15	0,23042
566,347	0,23078
566,545	0,23098
566,742	0,23152
566,939	0,23206
567,136	0,23261
567,334	0,23328
567,531	0,23386
567,728	0,23429
567,925	0,23496
568,122	0,23542
568,319	0,23592
568,517	0,23649
568,714	0,23705
568,911	0,23746
569,108	0,23817
569,305	0,23885
569,502	0,23939
569,699	0,23989
569,896	0,24064
570,093	0,24116
570,29	0,24172
570,487	0,24234
570,684	0,24303
570,881	0,24376
571,078	0,24426
571,275	0,24486
571,472	0,24538
571,669	0,24585
571,866	0,24641
572,062	0,24688
572,259	0,24749
572,456	0,24794
572,653	0,24863
572,85	0,24911
573,047	0,2496
573,243	0,25029
573,44	0,25073
573,637	0,25136
573,834	0,25199
574,03	0,25288
574,227	0,25347
574,424	0,25419
574,62	0,25485
574,817	0,25561
575,014	0,25632
575,21	0,25699
575,407	0,25773
575,604	0,25856
575,8	0,25924
575,997	0,26004
576,193	0,26062
576,39	0,26142
576,586	0,26203
576,783	0,26295
576,979	0,2634
577,176	0,26394
577,372	0,26466
577,569	0,26533
577,765	0,26603
577,962	0,26686
578,158	0,26761
578,355	0,26843
578,551	0,26904
578,747	0,26973
578,944	0,27039
579,14	0,2711
579,336	0,27198
579,533	0,27262
579,729	0,27325
579,925	0,27383
580,122	0,27429
580,318	0,27478
580,514	0,27522
580,71	0,27575
580,906	0,27643
581,103	0,2771
581,299	0,27772
581,495	0,27811
581,691	0,27867
581,887	0,27931
582,084	0,27996
582,28	0,28064
582,476	0,28132
582,672	0,28204
582,868	0,28287
583,064	0,28335
583,26	0,28379
583,456	0,28427
583,652	0,28488
583,848	0,2856
584,044	0,28592
584,24	0,28623
584,436	0,28667
584,632	0,28688
584,828	0,28714
585,024	0,28738
585,22	0,28786
585,416	0,28819
585,611	0,28859
585,807	0,28885
586,003	0,28902
586,199	0,28934
586,395	0,28987
586,591	0,29013
586,786	0,29062
586,982	0,2908
587,178	0,29115
587,374	0,29127
587,569	0,29149
587,765	0,29164
587,961	0,29186
588,156	0,29202
588,352	0,29229
588,548	0,29225
588,743	0,29231
588,939	0,29223
589,135	0,29235
589,33	0,29223
589,526	0,29206
589,721	0,2921
589,917	0,29218
590,112	0,2922
590,308	0,29202
590,503	0,29192
590,699	0,29186
590,894	0,29191
591,09	0,29186
591,285	0,29163
591,481	0,29138
591,676	0,29137
591,872	0,29092
592,067	0,29053
592,262	0,2902
592,458	0,28999
592,653	0,28968
592,848	0,28921
593,044	0,28864
593,239	0,28827
593,434	0,28786
593,629	0,28755
593,825	0,28709
594,02	0,2867
594,215	0,28621
594,41	0,28582
594,606	0,28527
594,801	0,28462
594,996	0,28416
595,191	0,28356
595,386	0,28291
595,581	0,28225
595,777	0,28151
595,972	0,28068
596,167	0,2799
596,362	0,27918
596,557	0,27827
596,752	0,27753
596,947	0,2768
597,142	0,27582
597,337	0,2749
597,532	0,27389
597,727	0,27294
597,922	0,27193
598,117	0,27108
598,312	0,2701
598,507	0,26898
598,701	0,26782
598,896	0,26658
599,091	0,26525
599,286	0,26416
599,481	0,26299
599,676	0,26191
599,87	0,26081
600,065	0,25954
600,26	0,25836
600,455	0,25717
600,65	0,25597
600,844	0,2547
601,039	0,25347
601,234	0,2522
601,428	0,251
601,623	0,24962
601,818	0,2483
602,012	0,24704
602,207	0,24571
602,402	0,24422
602,596	0,24274
602,791	0,24138
602,985	0,24019
603,18	0,23878
603,374	0,23739
603,569	0,23591
603,763	0,23461
603,958	0,2331
604,152	0,2316
604,347	0,23013
604,541	0,22867
604,736	0,22728
604,93	0,22575
605,125	0,22399
605,319	0,2224
605,513	0,22075
605,708	0,21915
605,902	0,21753
606,096	0,21592
606,291	0,21417
606,485	0,21269
606,679	0,21115
606,874	0,20949
607,068	0,20782
607,262	0,20627
607,456	0,20473
607,65	0,20323
607,845	0,20167
608,039	0,20003
608,233	0,19849
608,427	0,19691
608,621	0,1952
608,815	0,19359
609,01	0,19201
609,204	0,19059
609,398	0,18902
609,592	0,18733
609,786	0,1858
609,98	0,1843
610,174	0,18283
610,368	0,18128
610,562	0,17967
610,756	0,17811
610,95	0,17646
611,144	0,17482
611,338	0,17303
611,532	0,17158
611,726	0,16996
611,919	0,16834
612,113	0,16668
612,307	0,16501
612,501	0,16332
612,695	0,16186
612,889	0,16026
613,082	0,15869
613,276	0,15719
613,47	0,15571
613,664	0,15401
613,857	0,15243
614,051	0,15079
614,245	0,14924
614,439	0,14759
614,632	0,14616
614,826	0,14458
615,02	0,14308
615,213	0,14164
615,407	0,14008
615,6	0,13861
615,794	0,13712
615,988	0,13571
616,181	0,13426
616,375	0,13277
616,568	0,13143
616,762	0,13
616,955	0,12868
617,149	0,12722
617,342	0,12574
617,536	0,12439
617,729	0,12297
617,923	0,12177
618,116	0,12052
618,309	0,1192
618,503	0,11784
618,696	0,11648
618,889	0,11519
619,083	0,11361
619,276	0,11237
619,469	0,11103
619,663	0,10986
619,856	0,10854
620,049	0,10716
620,242	0,10586
620,436	0,10469
620,629	0,10359
620,822	0,10247
621,015	0,1012
621,209	0,1002
621,402	0,09895
621,595	0,09795
621,788	0,09677
621,981	0,09568
622,174	0,09452
622,367	0,09336
622,56	0,0921
622,753	0,09082
622,946	0,08968
623,139	0,0886
623,332	0,0875
623,525	0,08641
623,718	0,0853
623,911	0,08417
624,104	0,08308
624,297	0,08204
624,49	0,08116
624,683	0,08018
624,876	0,07928
625,069	0,0782
625,262	0,07729
625,454	0,07637
625,647	0,0756
625,84	0,07452
626,033	0,07359
626,226	0,07264
626,418	0,07172
626,611	0,07078
626,804	0,06988
626,997	0,06893
627,189	0,06813
627,382	0,06721
627,575	0,06631
627,767	0,0654
627,96	0,06461
628,153	0,06377
628,345	0,06299
628,538	0,06221
628,731	0,06132
628,923	0,06054
629,116	0,05992
629,308	0,05912
629,501	0,05832
629,693	0,05762
629,886	0,05685
630,078	0,05605
630,271	0,05541
630,463	0,0548
630,656	0,05414
630,848	0,05337
631,04	0,05262
631,233	0,05184
631,425	0,05113
631,617	0,05048
631,81	0,04971
632,002	0,04893
632,194	0,04837
632,387	0,04768
632,579	0,047
632,771	0,04628
632,964	0,0458
633,156	0,04527
633,348	0,04466
633,54	0,04415
633,732	0,04353
633,925	0,04303
634,117	0,04274
634,309	0,04219
634,501	0,0417
634,693	0,04111
634,885	0,04066
635,077	0,04013
635,269	0,03961
635,462	0,03911
635,654	0,03858
635,846	0,03822
636,038	0,03758
636,23	0,03698
636,422	0,03639
636,614	0,03581
636,806	0,03537
636,997	0,03492
637,189	0,03449
637,381	0,03399
637,573	0,03359
637,765	0,03315
637,957	0,03255
638,149	0,03231
638,341	0,03197
638,532	0,03167
638,724	0,03133
638,916	0,03099
639,108	0,03054
639,299	0,0302
639,491	0,02983
639,683	0,02948
639,875	0,0292
640,066	0,02903
640,258	0,02852
640,45	0,02809
640,641	0,02777
640,833	0,02735
641,025	0,02703
641,216	0,02659
641,408	0,02616
641,599	0,02579
641,791	0,02551
641,982	0,02516
642,174	0,02474
642,366	0,02453
642,557	0,02414
642,748	0,02368
642,94	0,02336
643,131	0,02295
643,323	0,02275
643,514	0,02251
643,706	0,0223
643,897	0,02194
644,088	0,02156
644,28	0,02128
644,471	0,02099
644,662	0,02078
644,854	0,02066
645,045	0,02049
645,236	0,02029
645,428	0,02002
645,619	0,01967
645,81	0,01945
646,001	0,01912
646,193	0,019
646,384	0,01868
646,575	0,01839
646,766	0,01815
646,957	0,01788
647,148	0,0176
647,339	0,01741
647,531	0,0173
647,722	0,01713
647,913	0,01683
648,104	0,01666
648,295	0,01647
648,486	0,01629
648,677	0,01616
648,868	0,01599
649,059	0,0158
649,25	0,01566
649,441	0,0155
649,632	0,01513
649,823	0,01505
650,013	0,01503
650,204	0,01482
650,395	0,01448
650,586	0,01442
650,777	0,01423
650,968	0,01399
651,159	0,01385
651,349	0,01358
651,54	0,01332
651,731	0,01318
651,922	0,01311
652,112	0,01284
652,303	0,01272
652,494	0,01272
652,684	0,01249
652,875	0,01241
653,066	0,01236
653,256	0,01224
653,447	0,01221
653,638	0,01215
653,828	0,01213
654,019	0,01185
654,209	0,01173
654,4	0,01165
654,59	0,01151
654,781	0,01147
654,972	0,01129
655,162	0,01121
655,352	0,01109
655,543	0,01105
655,733	0,01086
655,924	0,01084
656,114	0,01064
656,305	0,01061
656,495	0,01046
656,685	0,01029
656,876	0,01015
657,066	0,01002
657,256	0,00986
657,447	0,0098
657,637	0,00963
657,827	0,00956
658,017	0,00941
658,208	0,0094
658,398	0,00919
658,588	0,00907
658,778	0,00907
658,968	0,00895
659,159	0,00893
659,349	0,00886
659,539	0,00863
659,729	0,00857
659,919	0,00857
660,109	0,00846
660,299	0,00843
660,489	0,00854
660,679	0,00855
660,869	0,00835
661,059	0,00835
661,249	0,00824
661,439	0,00813
661,629	0,00806
661,819	0,00803
662,009	0,00789
662,199	0,00778
662,389	0,00763
662,579	0,00742
662,769	0,00732
662,959	0,00733
663,149	0,00729
663,338	0,00725
663,528	0,00728
663,718	0,00726
663,908	0,00701
664,097	0,00685
664,287	0,00675
664,477	0,00668
664,667	0,00662
664,856	0,00653
665,046	0,00649
665,236	0,00644
665,425	0,00635
665,615	0,00627
665,805	0,00631
665,994	0,0064
666,184	0,00644
666,373	0,0064
666,563	0,00636
666,753	0,00634
666,942	0,00631
667,132	0,00611
667,321	0,00598
667,511	0,00593
667,7	0,00576
667,889	0,00553
668,079	0,00555
668,268	0,00556
668,458	0,00551
668,647	0,0055
668,836	0,0055
669,026	0,00547
669,215	0,00556
669,404	0,00554
669,594	0,00547
669,783	0,00548
669,972	0,00559
670,162	0,00553
670,351	0,0054
670,54	0,00533
670,729	0,0052
670,919	0,00499
671,108	0,00492
671,297	0,00488
671,486	0,00485
671,675	0,00486
671,864	0,00491
672,053	0,00489
672,243	0,0048
672,432	0,00473
672,621	0,00478
672,81	0,00478
672,999	0,00485
673,188	0,00496
673,377	0,00491
673,566	0,00484
673,755	0,00478
673,944	0,00457
674,133	0,0044
674,322	0,00445
674,51	0,00453
674,699	0,00443
674,888	0,00443
675,077	0,00435
675,266	0,0042
675,455	0,00417
675,644	0,00414
675,832	0,00411
676,021	0,00423
676,21	0,00423
676,399	0,00412
676,587	0,00405
676,776	0,00402
676,965	0,004
677,153	0,004
677,342	0,00401
677,531	0,00397
677,719	0,00392
677,908	0,00385
678,097	0,00378
678,285	0,00378
678,474	0,00376
678,662	0,00381
678,851	0,00381
679,039	0,00372
679,228	0,0037
679,416	0,00366
679,605	0,0036
679,793	0,00363
679,982	0,00367
680,17	0,00364
680,359	0,00366
680,547	0,00369
680,736	0,00361
680,924	0,00363
681,112	0,00366
681,301	0,00372
681,489	0,00369
681,677	0,00369
681,866	0,0036
682,054	0,00352
682,242	0,00351
682,43	0,00359
682,619	0,00349
682,807	0,00335
682,995	0,0032
683,183	0,0032
683,371	0,00316
683,559	0,00313
683,748	0,00316
683,936	0,00317
684,124	0,00314
684,312	0,00311
684,5	0,00295
684,688	0,00301
684,876	0,00312
685,064	0,00311
685,252	0,00303
685,44	0,00295
685,628	0,00288
685,816	0,00287
686,004	0,00283
686,192	0,00282
686,38	0,00279
686,568	0,00276
686,756	0,00267
686,944	0,00255
687,131	0,00263
687,319	0,00273
687,507	0,00275
687,695	0,00277
687,883	0,00268
688,07	0,00276
688,258	0,0028
688,446	0,00285
688,634	0,00296
688,821	0,00299
689,009	0,00308
689,197	0,00306
689,384	0,00306
689,572	0,00303
689,76	0,00308
689,947	0,00308
690,135	0,00309
690,323	0,00314
690,51	0,00307
690,698	0,00297
690,885	0,00308
691,073	0,00298
691,26	0,00296
691,448	0,00292
691,635	0,00286
691,823	0,00283
692,01	0,00283
692,197	0,00265
692,385	0,00258
692,572	0,00255
692,76	0,00257
692,947	0,00245
693,134	0,00249
693,322	0,00241
693,509	0,00236
693,696	0,00234
693,884	0,00234
694,071	0,00233
694,258	0,00234
694,445	0,00233
694,633	0,00236
694,82	0,00227
695,007	0,00231
695,194	0,0023
695,381	0,0023
695,568	0,00226
695,756	0,00236
695,943	0,00228
696,13	0,00228
696,317	0,00236
696,504	0,00241
696,691	0,00238
696,878	0,00244
697,065	0,00227
697,252	0,00225
697,439	0,00238
697,626	0,00241
697,813	0,0023
698	0,00228
698,187	0,00226
698,374	0,00223
698,561	0,0022
698,747	0,00215
698,934	0,00206
699,121	0,00217
699,308	0,00206
699,495	0,00191
699,682	0,00193
699,868	0,00188
700,055	0,00184
700,242	0,00169
700,429	0,00162
700,615	0,00157
700,802	0,00147
700,989	0,00146
701,175	0,00136
701,362	0,00145
701,549	0,00147
701,735	0,00138
701,922	0,00148
702,108	0,00153
702,295	0,00162
702,482	0,00168
702,668	0,00165
702,855	0,00171
703,041	0,00186
703,228	0,0019
703,414	0,00186
703,601	0,00182
703,787	0,00187
703,973	0,00172
704,16	0,00162
704,346	0,00163
704,533	0,00157
704,719	0,00158
704,905	0,00152
705,092	0,00151
705,278	0,00151
705,464	0,00154
705,65	0,00164
705,837	0,00161
706,023	0,00171
706,209	0,0018
706,395	0,00187
706,582	0,00191
706,768	0,00194
706,954	0,00207
707,14	0,00193
707,326	0,00193
707,512	0,00192
707,698	0,00185
707,885	0,00181
708,071	0,00181
708,257	0,00174
708,443	0,00171
708,629	0,00175
708,815	0,00177
709,001	0,00172
709,187	0,00174
709,373	0,00171
709,559	0,00167
709,745	0,00166
709,93	0,00161
710,116	0,00159
710,302	0,00162
710,488	0,0016
710,674	0,00158
710,86	0,00151
711,046	0,00155
711,231	0,00154
711,417	0,00156
711,603	0,00153
711,789	0,00151
711,974	0,00163
712,16	0,00161
712,346	0,00161
712,532	0,00162
712,717	0,00153
712,903	0,00141
713,089	0,00131
713,274	0,00134
713,46	0,00127
713,645	0,00132
713,831	0,00145
714,016	0,00134
714,202	0,00141
714,388	0,00154
714,573	0,00141
714,759	0,00141
714,944	0,00148
715,129	0,00151
715,315	0,00152
715,5	0,00145
715,686	0,00137
715,871	0,00128
716,057	0,00126
716,242	0,00126
716,427	0,00114
716,613	0,00119
716,798	0,00128
716,983	0,00133
717,168	0,00139
717,354	0,00141
717,539	0,00155
717,724	0,00165
717,909	0,00168
718,095	0,00178
718,28	0,00169
718,465	0,00168
718,65	0,00168
718,835	0,00151
719,02	0,00147
719,206	0,00149
719,391	0,0015
719,576	0,00137
719,761	0,00136
719,946	0,00131
720,131	0,00131
720,316	0,00135
720,501	0,00135
720,686	0,00142
720,871	0,00156
721,056	0,00159
721,241	0,00141
721,426	0,0013
721,61	0,00134
721,795	0,0013
721,98	0,00126
722,165	0,00124
722,35	0,00131
722,535	0,00129
722,719	0,00114
722,904	0,00109
723,089	0,00109
723,274	0,00114
723,458	0,0011
723,643	0,00116
723,828	0,00111
724,013	0,00121
724,197	0,00121
724,382	0,00114
724,567	0,00113
724,751	0,00119
724,936	0,00114
725,12	0,00111
725,305	0,00124
725,489	0,00128
725,674	0,00122
725,859	0,00134
726,043	0,00133
726,228	0,0013
726,412	0,00133
726,596	0,00129
726,781	0,00137
726,965	0,00147
727,15	0,00155
727,334	0,00147
727,518	0,00136
727,703	0,00143
727,887	0,00131
728,072	0,00124
728,256	0,00119
728,44	0,00111
728,624	0,00112
728,809	0,00094
728,993	0,00083
729,177	0,0008
729,361	0,00082
729,546	0,00091
729,73	0,00095
729,914	0,00089
730,098	0,00088
730,282	0,00087
730,466	0,00092
730,65	0,00094
730,834	0,00103
731,019	0,00104
731,203	0,00095
731,387	0,00098
731,571	0,00092
731,755	0,00089
731,939	0,00094
732,123	0,00091
732,306	0,00095
732,49	0,00088
732,674	0,00094
732,858	0,00095
733,042	0,00096
733,226	0,00108
733,41	0,001
733,594	0,00111
733,778	0,00106
733,961	0,00117
734,145	0,0012
734,329	0,00128
734,513	0,00134
734,696	0,00124
734,88	0,00123
735,064	0,0012
735,247	0,00102
735,431	0,00107
735,615	0,00096
735,798	0,001
735,982	0,00093
736,166	0,00102
736,349	0,0009
736,533	0,00091
736,716	0,00099
736,9	0,00097
737,083	0,00102
737,267	0,00106
737,45	0,00099
737,634	0,00107
737,817	0,00105
738,001	0,00097
738,184	0,00085
738,368	0,00091
738,551	0,00085
738,734	0,00083
738,918	0,00087
739,101	0,00092
739,284	0,00093
739,468	0,00097
739,651	0,001
739,834	0,00096
740,018	0,00099
740,201	0,00101
740,384	0,00104
740,567	0,00108
740,75	0,00107
740,934	0,00099
741,117	0,00094
741,3	0,00107
741,483	0,00103
741,666	0,00092
741,849	0,00098
742,032	0,00105
742,215	0,00102
742,399	0,00107
742,582	0,00106
742,765	0,00111
742,948	0,00118
743,131	0,00121
743,314	0,00102
743,496	0,00094
743,679	0,00104
743,862	0,00102
744,045	0,00099
744,228	0,001
744,411	0,00094
744,594	0,00089
744,777	0,00083
744,959	0,00081
745,142	0,00088
745,325	0,00102
745,508	0,00111
745,691	0,00113
745,873	0,00109
746,056	0,00105
746,239	0,00103
746,421	0,00104
746,604	0,00101
746,787	0,00107
746,969	0,00106
747,152	0,00091
747,335	0,00083
747,517	0,00089
747,7	0,00097
747,882	0,00099
748,065	0,00097
748,247	0,00102
748,43	0,00096
748,612	0,00104
748,795	0,00099
748,977	0,00088
749,16	0,00086
749,342	0,00098
749,524	0,00093
749,707	0,00081
749,889	0,00085
750,072	0,00083
750,254	0,0008
750,436	0,00078
750,619	0,00078
750,801	0,00077
750,983	0,00086
751,165	0,00086
751,348	0,00078
751,53	0,00068
751,712	0,0007
751,894	0,00067
752,076	0,00077
752,259	0,00079
752,441	0,00083
752,623	0,00083
752,805	0,0007
752,987	0,00061
753,169	0,00062
753,351	0,0006
753,533	0,00069
753,715	0,0007
753,897	0,00069
754,079	0,00074
754,261	0,00076
754,443	0,00074
754,625	0,00068
754,807	0,00076
754,989	0,00088
755,171	0,00099
755,353	0,00101
755,534	0,00093
755,716	0,00093
755,898	0,00087
756,08	0,00075
756,262	0,00072
756,443	0,00065
756,625	0,00068
756,807	0,00069
756,989	0,00064
757,17	0,00059
757,352	0,0006
757,534	0,00069
757,715	0,00065
757,897	0,00064
758,079	0,00073
758,26	0,00072
758,442	0,00083
758,623	0,00082
758,805	0,00085
758,987	0,00082
759,168	0,00078
759,35	0,00078
759,531	0,00074
759,713	0,00075
759,894	0,00071
760,075	0,00063
760,257	0,0006
760,438	0,00054
760,62	0,00046
760,801	0,00044
760,982	0,00048
761,164	0,00047
761,345	0,00036
761,526	0,00029
761,708	0,00027
761,889	0,00028
762,07	0,00028
762,251	0,00033
762,433	0,00037
762,614	0,00044
762,795	0,00044
762,976	0,00045
763,157	0,00055
763,338	0,00056
763,52	0,00057
763,701	0,00048
763,882	0,00049
764,063	0,00046
764,244	0,00043
764,425	0,00051
764,606	0,00053
764,787	0,00054
764,968	0,00046
765,149	0,00031
765,33	0,00033
765,511	0,00031
765,692	0,0003
765,873	0,00032
766,053	0,00033
766,234	0,00024
766,415	0,00011
766,596	0
766,777	-0,00004
766,958	-0,00009
767,138	0,00004
767,319	-0,00001
767,5	0,00003
767,681	0,00002
767,861	0,00013
768,042	0,00013
768,223	0,00026
768,403	0,00018
768,584	0,00029
768,765	0,00029
768,945	0,00022
769,126	0,00014
769,307	0,00016
769,487	0,00017
769,668	0,00021
769,848	0,0001
770,029	0,00016
770,209	0,00003
770,39	0,00003
770,57	0,00006
770,751	0,00005
770,931	0,00019
771,111	0,00016
771,292	0,00015
771,472	0,00016
771,653	0,00022
771,833	0,00023
772,013	0,00017
772,194	0,00025
772,374	0,0003
772,554	0,00022
772,734	0,00028
772,915	0,00028
773,095	0,00033
773,275	0,00046
773,455	0,00047
773,635	0,00034
773,816	0,00037
773,996	0,00049
774,176	0,00054
774,356	0,00059
774,536	0,0005
774,716	0,00043
774,896	0,00033
775,076	0,00026
775,256	0,00025
775,436	0,00033
775,616	0,00052
775,796	0,00055
775,976	0,0005
776,156	0,00046
776,336	0,00042
776,516	0,00045
776,696	0,00045
776,876	0,00061
777,056	0,0006
777,235	0,00049
777,415	0,00043
777,595	0,00022
777,775	0,00004
777,955	-0,00007
778,134	-0,0001
778,314	-0,00004
778,494	0,00004
778,674	0,00014
778,853	-0,00004
779,033	-0,00001
779,213	0,00009
779,392	0,00003
779,572	0,00014
779,751	0,0001
779,931	0,0001
780,111	0,00008
780,29	-0,00006
780,47	-0,00015
780,649	-0,00018
780,829	-0,00014
781,008	-0,00013
781,188	-0,00018
781,367	-0,00011
781,546	-0,00009
781,726	0,00002
781,905	0,00009
782,085	0,00006
782,264	0,00015
782,443	0,00027
782,623	0,00023
782,802	0,00027
782,981	0,00032
783,161	0,0003
783,34	0,00035
783,519	0,00042
783,698	0,00046
783,878	0,00045
784,057	0,00038
784,236	0,0005
784,415	0,00051
784,594	0,00052
784,773	0,00049
784,952	0,00051
785,132	0,00049
785,311	0,00045
785,49	0,00035
785,669	0,00033
785,848	0,00037
786,027	0,00048
786,206	0,00039
786,385	0,00036
786,564	0,00033
786,743	0,0004
786,922	0,00038
787,1	0,00034
787,279	0,00023
787,458	0,00026
787,637	0,0003
787,816	0,00031
787,995	0,00028
788,174	0,00024
788,352	0,00024
788,531	0,00023
788,71	0,00022
788,889	0,0001
789,067	0,00002
789,246	0,00005
789,425	0,00011
789,603	-0
789,782	-0,00015
789,961	-0,00012
790,139	-0,00005
790,318	-0,00011
790,496	-0,00011
790,675	-0,00004
790,853	-0,00001
791,032	0,00009
791,211	0,00014
791,389	0,00006
791,568	0,00021
791,746	0,00037
791,924	0,00043
792,103	0,00037
792,281	0,0004
792,46	0,00047
792,638	0,00039
792,816	0,00046
792,995	0,00056
793,173	0,00047
793,351	0,00049
793,53	0,00043
793,708	0,00041
793,886	0,00035
794,064	0,00034
794,243	0,00051
794,421	0,0004
794,599	0,00037
794,777	0,00035
794,955	0,00019
795,133	0,00018
795,312	0,00009
795,49	0,0002
795,668	0,00016
795,846	0,00022
796,024	0,00035
796,202	0,00021
796,38	0,0003
796,558	0,00019
796,736	0,0001
796,914	0,00035
797,092	0,00037
797,27	0,00042
797,448	0,00025
797,626	0,00018
797,803	0,00012
797,981	-0,00005
798,159	-0,00008
798,337	-0,00004
798,515	0
798,693	0,00006
798,87	-0,00022
799,048	-0,00021
799,226	-0,00025
799,404	-0,00029
799,581	-0,00022
799,759	-0,00022
799,937	-0,00021
800,114	-0,0002
800,292	-0,00028
800,469	-0,00003
800,647	-0,0001
800,825	-0,00002
801,002	-0,00004
801,18	-0,00001
801,357	0,00011
801,535	0,00012
801,712	0,00013
801,89	0,00021
802,067	0,00011
802,245	0,00007
802,422	-0,00015
802,6	-0,00011
802,777	-0,00006
802,954	-0,00004
803,132	-0,00003
803,309	-0,00008
803,486	-0,00019
803,664	-0,00021
803,841	-0,00019
804,018	-0,00002
804,195	-0,00006
804,373	-0,00011
804,55	0
804,727	-0,00009
804,904	-0,00006
805,081	-0,00003
805,259	-0,00004
805,436	-0,00016
805,613	-0,00023
805,79	-0,00016
805,967	-0,00015
806,144	-0,00012
806,321	-0,00001
806,498	-0,00005
806,675	0,00009
806,852	0,0001
807,029	0,00008
807,206	0,00009
807,383	0,00023
807,56	0,00035
807,737	0,00022
807,914	0,00012
808,091	0,00028
808,268	0,00046
808,444	0,00042
808,621	0,00037
808,798	0,00021
808,975	0,00024
809,152	0,00016
809,328	0,00022
809,505	0,00019
809,682	0,00015
809,858	0,0001
810,035	0,00001
810,212	-0,00026
810,388	-0,00021
810,565	-0,00012
810,742	0
810,918	-0,00007
811,095	-0,00003
811,271	-0,00012
811,448	-0,0001
811,625	-0,0001
811,801	-0,00009
811,978	-0,00003
812,154	-0,00011
812,33	-0,00008
812,507	-0,00004
812,683	-0,00008
812,86	-0,0001
813,036	0,00009
813,212	0,0002
813,389	0,00008
813,565	0,00012
813,741	0,00029
813,918	0,00025
814,094	0,00045
814,27	0,00039
814,447	0,00025
814,623	0,00038
814,799	0,00039
814,975	0,00027
815,151	0,00023
815,328	0,00034
815,504	0,00042
815,68	0,00026
815,856	0,00033
816,032	0,00027
816,208	0,00029
816,384	0,00022
816,56	0,00022
816,736	0,00024
816,912	0,00026
817,088	0,00022
817,264	0,00017
817,44	0,0001
817,616	0,00011
817,792	-0,00008
817,968	-0,00002
818,144	0,00023
818,32	0,00036
818,495	0,00045
818,671	0,00043
818,847	0,00034
819,023	0,00041
819,199	0,00042
819,374	0,00048
819,55	0,00047
819,726	0,00054
819,902	0,00042
820,077	0,00016
820,253	0,00011
820,429	-0,00008
820,604	0,00009
820,78	0,00016
820,956	0,0001
821,131	0,00007
821,307	-0,00002
821,482	-0,00004
821,658	0,00001
821,833	-0,00013
822,009	-0,00024
822,184	-0,00027
822,36	-0,00022
822,535	-0,00048
822,711	-0,00042
822,886	-0,00038
823,061	-0,00041
823,237	-0,00023
823,412	-0,0001
823,587	-0,00022
823,763	-0,0002
823,938	-0,00005
824,113	-0,00008
824,289	-0,00019
824,464	-0,00007
824,639	-0,00012
824,814	-0,00028
824,99	-0,00029
825,165	-0,0004
825,34	-0,00045
825,515	-0,00021
825,69	0
825,865	-0,00002
826,04	0,00005
826,215	0,0002
826,39	0,00029
826,566	0,0004
826,741	0,00057
826,916	0,00075
827,091	0,00063
827,265	0,0007
827,44	0,00062
827,615	0,00072
827,79	0,00065
827,965	0,00059
828,14	0,00064
828,315	0,00072
828,49	0,00056
828,665	0,00057
828,839	0,00039
829,014	0,00056
829,189	0,00038
829,364	0,00035
829,538	0,0004
829,713	0,00039
829,888	0,00058
830,063	0,00045
830,237	0,00019
830,412	0,00021
830,587	0,00029
830,761	0,00036
830,936	0,00035
831,11	0,00034
831,285	0,00022
831,459	0,00016
831,634	0,00025
831,809	0,00023
831,983	0,00019
832,157	0,00021
832,332	0,00017
832,506	0,00009
832,681	0,00008
832,855	-0,00012
833,03	-0,00021
833,204	-0,00028
833,378	-0,00024
833,553	-0,00026
833,727	-0,00027
833,901	-0,00015
834,076	-0,00005
834,25	-0,00005
834,424	0,00002
834,598	0,00013
834,773	0,00039
834,947	0,00065
835,121	0,00077
835,295	0,00063
835,469	0,00054
835,643	0,00021
835,817	0,00013
835,991	0,00012
836,166	0,00018
836,34	0,00018
836,514	0,00004
836,688	-0,00016
836,862	-0,00015
837,036	-0,0002
837,21	-0,00016
837,384	-0,00009
837,557	0,00018
837,731	0,00025
837,905	0,00028
838,079	0,00041
838,253	0,00026
838,427	0,00024
838,601	0,00008
838,774	-0,00008
838,948	-0,00005
839,122	0,00004
839,296	0,00006
839,469	0,00008
839,643	-0,00012
839,817	-0,00024
839,991	-0,00055
840,164	-0,00048
840,338	-0,00051
840,512	-0,00033
840,685	-0,00004
840,859	-0,00027
841,032	-0,00054
841,206	-0,00049
841,379	-0,0005
841,553	-0,0004
841,726	-0,00021
841,9	0,00006
842,073	0,00005
842,247	0,0003
842,42	0,00023
842,594	0,00011
842,767	0,00032
842,94	0,00051
843,114	0,0005
843,287	0,00042
843,46	0,00044
843,634	0,00018
843,807	0,00012
843,98	0,00012
844,154	0,00009
844,327	0,00004
844,5	-0,0001
844,673	-0,00002
844,846	-0,00013
845,02	-0,00013
845,193	-0,00025
845,366	-0,00038
845,539	-0,00032
845,712	-0,00029
845,885	-0,00045
846,058	-0,00067
846,231	-0,00069
846,404	-0,00058
846,577	-0,00048
846,75	-0,00035
846,923	-0,0003
847,096	-0,00028
847,269	-0,00002
847,442	0,00014
847,615	0,00024
847,788	0,00035
847,961	0,00054
848,133	0,00075
848,306	0,00074
848,479	0,00063
848,652	0,0006
848,825	0,0005
848,997	0,00065
849,17	0,00057
849,343	0,00046
849,515	0,00023
849,688	0,00029
849,861	0,00026
850,033	0,00019
850,206	0,00004
850,379	0,00005
850,551	0,00003
850,724	0,00014
850,896	-0,00004
851,069	0,00003
851,241	0,00004
851,414	0,00015
851,586	0,00009
851,759	-0,00001
851,931	0,0001
852,104	0,00026
852,276	0,00013
852,449	0,00009
852,621	-0,00002
852,793	-0,00003
852,966	0,00009
853,138	0,00016
853,31	0,00015
853,483	0,00036
853,655	0,00028
853,827	0,00008
853,999	0,00001
854,172	0,00009
854,344	0,00004
854,516	0,00007
854,688	0,00021
854,86	-0,00003
855,032	-0,00014
855,204	-0,00011
855,377	-0,00036
855,549	-0,00029
855,721	-0,00029
855,893	-0,00028
856,065	-0,00029
856,237	-0,0003
856,409	-0,00026
856,581	-0,00028
856,753	0,00002
856,924	0,00021
857,096	0,00035
857,268	0,00053
857,44	0,00049
857,612	0,00057
857,784	0,0005
857,956	0,00046
858,127	0,00041
858,299	0,00004
858,471	-0,00008
858,643	-0,00033
858,814	-0,00059
858,986	-0,00076
859,158	-0,0008
859,33	-0,00075
859,501	-0,0008
859,673	-0,00076
859,844	-0,00057
860,016	-0,00033
860,188	0,00008
860,359	0,00039
860,531	0,00034
860,702	0,00034
860,874	0,00025
861,045	0,00021
861,217	0,00025
861,388	0,00026
861,56	0,00016
861,731	-0,00005
861,902	-0,00008
862,074	-0,00026
862,245	-0,00023
862,417	-0,00029
862,588	-0,00019
862,759	-0,00014
862,931	-0,00021
863,102	0,00006
863,273	0,00019
863,444	0,00022
863,616	0,00033
863,787	0,00014
863,958	0,00014
864,129	-0,00011
864,3	-0,00022
864,471	-0,00032
864,642	-0,0003
864,814	-0,00045
864,985	-0,00077
865,156	-0,00103
865,327	-0,00099
865,498	-0,00079
865,669	-0,00077
865,84	-0,00064
866,011	-0,00059
866,182	-0,0003
866,353	-0,00012
866,523	-0,00026
866,694	-0,00001
866,865	0,00003
867,036	0,00024
867,207	0,00028
867,378	-0,00026
867,549	-0,00039
867,719	-0,00048
867,89	-0,00064
868,061	-0,0006
868,232	-0,00077
868,402	-0,00068
868,573	-0,00086
868,744	-0,00076
868,914	-0,0009
869,085	-0,00104
869,256	-0,00094
869,426	-0,0009
869,597	-0,0008
869,767	-0,00052
869,938	-0,00058
870,108	-0,00042
870,279	-0,00047
870,449	-0,00059
870,62	-0,00064
870,79	-0,00052
870,961	-0,00029
871,131	-0,00022
871,302	0,00031
871,472	0,00022
871,642	0,00013
871,813	0,00005
871,983	-0,00011
872,153	-0,00015
872,324	0,00014
872,494	-0,00009
872,664	-0,00042
872,835	-0,00026
873,005	0,0001
873,175	-0,00037
873,345	-0,00043
873,515	-0,00042
873,685	-0,00023
873,856	-0,00005
874,026	0,00028
874,196	0,00034
874,366	0,00037
874,536	0,00068
874,706	0,00028
874,876	0,00008
875,046	0,00002
875,216	0,00007
875,386	-0
875,556	-0,00001
875,726	-0,00037
875,896	-0,00076
876,066	-0,00096
876,236	-0,00134
876,405	-0,00151
876,575	-0,00162
876,745	-0,00158
876,915	-0,00128
877,085	-0,00119
877,254	-0,00114
877,424	-0,00115
877,594	-0,00089
877,764	-0,00063
877,933	-0,00048
878,103	0,00008
878,273	0,00044
878,442	0,00061
878,612	0,00041
878,781	0,00023
878,951	0,00027
879,121	0,00025
879,29	-0,00006
879,46	-0,00009
879,629	0,00013
879,799	0,00001
879,968	0,00032
880,138	0,00016
880,307	0,00032
880,476	0,00056
880,646	0,00046
880,815	0,0004
880,985	0,0002
881,154	0,0004
881,323	0,00052
881,493	0,00021
881,662	0,00011
881,831	0,00004
882	-0,00005
882,17	0,00025
882,339	0,00013
882,508	0,00022
882,677	0,0004
882,846	0,00088
883,016	0,00067
883,185	0,00059
883,354	0,0007
883,523	0,00052
883,692	0,00061
883,861	0,00082
884,03	0,00026
884,199	0,0002
884,368	0,00056
884,537	0,00009
884,706	-0,00009
884,875	0,00017
885,044	0,00036
885,213	0,0005
885,382	0,00059
885,55	0,00037
885,719	0,0002
885,888	0,00017
886,057	0,00005
886,226	-0,00023
886,395	0,00009
886,563	0,00015
886,732	-0
886,901	-0,00009
887,069	-0,00034
887,238	0,00002
887,407	-0,00021
887,575	0,00012
887,744	0,00047
887,913	0,00041
888,081	0,00028
888,25	0,00028
888,418	0,00009
888,587	0,00003
888,755	-0,00027
888,924	-0,0003
889,092	-0,00034
889,261	-0,0003
889,429	-0,00057
889,598	-0,00066
889,766	-0,00024
889,935	-0,00019
890,103	-0,0003
890,271	-0,00038
890,44	-0,00042
890,608	-0,00058
890,776	-0,00029
890,944	-0,00015
891,113	-0,00021
891,281	-0,00024
891,449	-0,00043
891,617	-0,0009
891,786	-0,00094
891,954	-0,00062
892,122	-0,00056
892,29	-0,0004
892,458	-0,00013
892,626	-0,00031
892,794	-0,00058
892,962	-0,00047
893,13	-0,00048
893,298	-0,00025
893,466	0,00024
