Data from Chemiepractica_Absorbance__11__11-34-13-137.txt Node

Date: Mon Dec 09 11:34:13 CET 2024
User: r0948668
Spectrometer: USB4F07138
Trigger mode: 4
Integration Time (sec): 6,000000E-3
Scans to average: 20
Electric dark correction enabled: true
Nonlinearity correction enabled: false
Boxcar width: 5
XAxis mode: Wavelengths
Number of Pixels in Spectrum: 3648
>>>>>Begin Spectral Data<<<<<
176,779	-0
176,999	-0
177,218	-0
177,438	-0
177,658	0,64763
177,878	-0
178,097	0,19161
178,317	-0,12375
178,537	-0,13706
178,757	-0,01656
178,976	0,05499
179,196	0,63264
179,416	-0
179,635	-0,12581
179,855	-0,06715
180,075	-0,05859
180,294	-0,10109
180,514	-0,10259
180,734	-0,03905
180,953	-0,03087
181,173	-0,02711
181,392	-0,04269
181,612	-0,04325
181,832	-0,02032
182,051	-0,01708
182,271	-0,03443
182,49	-0,04208
182,71	-0,02715
182,929	-0,00415
183,149	-0,01677
183,368	-0,00373
183,588	0,00041
183,807	0,01483
184,027	0,03106
184,246	0,03134
184,466	0,02735
184,685	0,04617
184,905	0,04569
185,124	0,04261
185,344	0,03643
185,563	0,04528
185,782	0,04642
186,002	0,04576
186,221	0,04496
186,44	0,03245
186,66	0,01516
186,879	0,02578
187,099	0,01929
187,318	0,01103
187,537	0,00519
187,756	0,01208
187,976	-0,00045
188,195	-0,007
188,414	-0,0095
188,634	-0,00071
188,853	0,0043
189,072	0,01774
189,291	0,01462
189,511	0,02656
189,73	0,04792
189,949	0,05694
190,168	0,04286
190,387	0,05476
190,607	0,06208
190,826	0,06239
191,045	0,04956
191,264	0,04485
191,483	0,03545
191,702	0,02322
191,921	0,00589
192,141	-0,0009
192,36	-0,01729
192,579	-0,01143
192,798	-0,0096
193,017	-0,02487
193,236	-0,009
193,455	-0,00615
193,674	0,00055
193,893	-0,00781
194,112	0,0103
194,331	0,01677
194,55	0,01848
194,769	0,02536
194,988	0,02189
195,207	0,02262
195,426	0,03033
195,645	0,02195
195,864	0,02063
196,083	0,02113
196,302	0,02501
196,521	0,02432
196,739	0,01792
196,958	0,01596
197,177	0,02699
197,396	0,0434
197,615	0,04137
197,834	0,02392
198,053	0,02082
198,271	0,01528
198,49	0,01373
198,709	0,02066
198,928	0,01257
199,147	0,0201
199,365	0,02203
199,584	0,01684
199,803	-0,00815
200,022	-0,01043
200,24	-0,01003
200,459	-0,0074
200,678	0,00092
200,897	-0,00151
201,115	-0,00809
201,334	-0,00146
201,553	-0,00236
201,771	-0,00726
201,99	-0,01325
202,209	-0,00142
202,427	-0,00501
202,646	0,01067
202,864	0,00885
203,083	0,00703
203,302	0,00455
203,52	0,01398
203,739	0,01685
203,957	0,02798
204,176	0,03263
204,394	0,02677
204,613	0,02308
204,831	0,03547
205,05	0,03584
205,268	0,03592
205,487	0,03685
205,705	0,03833
205,924	0,0435
206,142	0,03499
206,361	0,03121
206,579	0,03612
206,798	0,05178
207,016	0,0451
207,234	0,02948
207,453	0,03516
207,671	0,04372
207,89	0,04863
208,108	0,05111
208,326	0,03555
208,545	0,03356
208,763	0,02955
208,981	0,01832
209,2	0,00409
209,418	0,01112
209,636	0,0066
209,855	-0,00413
210,073	-0,01032
210,291	-0,01925
210,509	-0,02206
210,728	-0,02527
210,946	-0,02338
211,164	-0,01923
211,382	-0,00852
211,6	0,01143
211,819	0,00964
212,037	0,01692
212,255	0,01094
212,473	0,00599
212,691	0,00498
212,909	0,01384
213,128	0,00758
213,346	0,00182
213,564	0,00663
213,782	0,00452
214	0,00087
214,218	0,00371
214,436	-0
214,654	0,00969
214,872	0,00848
215,09	0,00246
215,308	0,00509
215,526	0,02097
215,744	0,02462
215,962	0,01054
216,18	-0,00006
216,398	0,00097
216,616	0,00151
216,834	0,00574
217,052	0,00706
217,27	0,00705
217,488	0,02378
217,706	0,02366
217,924	0,03545
218,142	0,04545
218,36	0,04757
218,578	0,06688
218,795	0,05384
219,013	0,04843
219,231	0,04433
219,449	0,04272
219,667	0,03269
219,885	0,03201
220,102	0,03434
220,32	0,01377
220,538	0,00823
220,756	0,00265
220,973	-0,00839
221,191	-0,00961
221,409	-0,00617
221,627	0,0001
221,844	0,00876
222,062	0,01549
222,28	0,00298
222,497	-0,01379
222,715	-0,00791
222,933	-0,01558
223,15	-0,011
223,368	-0,00989
223,586	-0,00159
223,803	0,00923
224,021	0,00816
224,239	-0,00445
224,456	-0,00733
224,674	0,00454
224,891	0,0138
225,109	0,00678
225,326	0,0081
225,544	0,00761
225,762	0,00916
225,979	0,00783
226,197	0,00453
226,414	0,00446
226,632	-0,00022
226,849	-0,00235
227,066	-0,00808
227,284	-0,00868
227,501	0,01062
227,719	0,01291
227,936	0,01201
228,154	0,01376
228,371	0,0181
228,588	0,01927
228,806	0,02544
229,023	0,03694
229,241	0,04942
229,458	0,06106
229,675	0,07034
229,893	0,05264
230,11	0,0688
230,327	0,07302
230,545	0,07374
230,762	0,06635
230,979	0,07174
231,196	0,06176
231,414	0,05597
231,631	0,04874
231,848	0,0354
232,065	0,03137
232,283	0,03588
232,5	0,02878
232,717	0,02458
232,934	0,01611
233,151	0,0198
233,368	0,01208
233,586	0,00793
233,803	0,00601
234,02	0,01165
234,237	0,00788
234,454	-0,00524
234,671	0,02082
234,888	0,01045
235,105	0,01892
235,322	0,0352
235,54	0,03731
235,757	0,03528
235,974	0,04401
236,191	0,04311
236,408	0,04002
236,625	0,03854
236,842	0,03412
237,059	0,01214
237,276	0,00103
237,493	-0,0022
237,71	-0,01035
237,926	-0,02027
238,143	-0,02075
238,36	-0,02637
238,577	-0,02804
238,794	-0,0266
239,011	-0,01997
239,228	-0,00719
239,445	-0,00798
239,662	0,01312
239,878	0,01414
240,095	0,01446
240,312	0,02539
240,529	0,02267
240,746	0,02963
240,963	0,0264
241,179	0,03087
241,396	0,03786
241,613	0,03537
241,83	0,03238
242,046	0,03195
242,263	0,02423
242,48	0,01838
242,697	0,01892
242,913	0,03283
243,13	0,02549
243,347	0,049
243,563	0,04252
243,78	0,0376
243,997	0,03941
244,213	0,05415
244,43	0,05695
244,646	0,07046
244,863	0,06673
245,08	0,06769
245,296	0,05816
245,513	0,05607
245,729	0,05113
245,946	0,05796
246,162	0,05848
246,379	0,06388
246,595	0,04486
246,812	0,03845
247,028	0,04413
247,245	0,0628
247,461	0,04357
247,678	0,03238
247,894	0,04352
248,111	0,03088
248,327	0,03788
248,544	0,03363
248,76	0,02533
248,976	0,03934
249,193	0,03063
249,409	0,01271
249,626	0,00968
249,842	0,02527
250,058	0,03228
250,275	0,02904
250,491	0,02557
250,707	0,01443
250,924	0,0146
251,14	0,01558
251,356	0,01042
251,572	0,01248
251,789	0,02121
252,005	0,00528
252,221	0,00428
252,437	0,00221
252,654	-0,00789
252,87	-0,00414
253,086	-0,0002
253,302	0,00176
253,518	-0,00068
253,735	-0,00591
253,951	-0,00688
254,167	-0,00625
254,383	-0,01316
254,599	-0,01383
254,815	-0,00769
255,031	-0,00484
255,247	-0,01367
255,463	-0,02634
255,68	-0,01751
255,896	-0,0133
256,112	-0,00954
256,328	-0,00075
256,544	-0,0059
256,76	0,02134
256,976	0,01803
257,192	0,01488
257,408	0,02621
257,624	0,02905
257,84	0,03996
258,056	0,03866
258,272	0,03234
258,487	0,022
258,703	0,02164
258,919	0,02725
259,135	0,01544
259,351	0,02512
259,567	0,02454
259,783	0,01751
259,999	0,0182
260,215	0,02042
260,43	0,01347
260,646	0,01541
260,862	0,02956
261,078	0,02226
261,294	0,01523
261,509	0,0246
261,725	0,02082
261,941	0,02228
262,157	0,02517
262,372	0,03602
262,588	0,03136
262,804	0,03878
263,019	0,04267
263,235	0,04135
263,451	0,0499
263,667	0,0517
263,882	0,05264
264,098	0,05553
264,313	0,06304
264,529	0,05481
264,745	0,05065
264,96	0,04386
265,176	0,04224
265,391	0,03455
265,607	0,03571
265,823	0,03734
266,038	0,04252
266,254	0,03394
266,469	0,03881
266,685	0,02387
266,9	0,02525
267,116	0,02891
267,331	0,04377
267,547	0,0471
267,762	0,05304
267,978	0,03886
268,193	0,0419
268,408	0,04673
268,624	0,05261
268,839	0,04112
269,055	0,03772
269,27	0,03859
269,485	0,0301
269,701	0,02521
269,916	0,01567
270,132	0,02576
270,347	0,04063
270,562	0,03025
270,777	0,01808
270,993	0,01932
271,208	0,02404
271,423	0,04218
271,639	0,05034
271,854	0,04567
272,069	0,04335
272,284	0,04538
272,5	0,03147
272,715	0,02881
272,93	0,02787
273,145	0,02532
273,36	0,02442
273,576	0,02423
273,791	0,01232
274,006	0,00513
274,221	0,01346
274,436	0,02021
274,651	0,01513
274,866	0,02961
275,081	0,03705
275,296	0,03646
275,512	0,04705
275,727	0,04616
275,942	0,04947
276,157	0,05456
276,372	0,05699
276,587	0,05791
276,802	0,06282
277,017	0,0627
277,232	0,05974
277,447	0,05946
277,662	0,06338
277,877	0,05298
278,092	0,04854
278,306	0,04767
278,521	0,04403
278,736	0,04455
278,951	0,04618
279,166	0,02881
279,381	0,03284
279,596	0,02344
279,811	0,00926
280,025	-0,0001
280,24	0,00796
280,455	0,00883
280,67	0,00063
280,885	0,00323
281,099	0,00677
281,314	-0,0007
281,529	0,01126
281,744	0,0267
281,959	0,02855
282,173	0,03772
282,388	0,05822
282,603	0,06038
282,817	0,06812
283,032	0,07757
283,247	0,06967
283,461	0,06715
283,676	0,0615
283,891	0,05681
284,105	0,04189
284,32	0,0482
284,535	0,04261
284,749	0,03303
284,964	0,03957
285,178	0,03163
285,393	0,03049
285,607	0,03516
285,822	0,03387
286,036	0,03841
286,251	0,03557
286,465	0,03618
286,68	0,0237
286,894	0,02242
287,109	0,02397
287,323	0,01003
287,538	0,01666
287,752	0,00496
287,967	0,00822
288,181	0,00682
288,396	0,0196
288,61	0,02881
288,824	0,03329
289,039	0,04938
289,253	0,04984
289,467	0,04568
289,682	0,04354
289,896	0,04465
290,11	0,04793
290,325	0,04171
290,539	0,03706
290,753	0,02946
290,968	0,0204
291,182	0,01652
291,396	0,00704
291,61	0,01871
291,825	0,0183
292,039	0,02141
292,253	0,01602
292,467	0,0168
292,681	0,01542
292,896	0,02148
293,11	0,01789
293,324	0,02717
293,538	0,03522
293,752	0,04884
293,966	0,03972
294,18	0,04063
294,394	0,03251
294,608	0,03029
294,823	0,03037
295,037	0,03488
295,251	0,03939
295,465	0,03984
295,679	0,02339
295,893	0,00866
296,107	-0,00712
296,321	-0,00524
296,535	-0,0103
296,749	-0,00228
296,963	-0,00433
297,177	-0,0008
297,391	0,00226
297,604	-0,00781
297,818	-0,00768
298,032	-0,0049
298,246	-0,00409
298,46	0,00154
298,674	0,00913
298,888	0,0108
299,102	0,01431
299,315	0,02647
299,529	0,03043
299,743	0,02758
299,957	0,03113
300,171	0,03834
300,385	0,04205
300,598	0,05387
300,812	0,05594
301,026	0,05176
301,24	0,05744
301,453	0,05284
301,667	0,04441
301,881	0,03351
302,094	0,03482
302,308	0,03929
302,522	0,04079
302,735	0,0452
302,949	0,03535
303,163	0,02751
303,376	0,01926
303,59	0,024
303,803	0,01896
304,017	0,01585
304,231	0,02394
304,444	0,02236
304,658	0,01815
304,871	0,01674
305,085	0,01953
305,298	0,01801
305,512	0,02867
305,725	0,03225
305,939	0,02634
306,152	0,0223
306,366	0,01363
306,579	0,01375
306,793	0,01365
307,006	0,01775
307,22	0,0203
307,433	0,01283
307,646	0,01504
307,86	0,00423
308,073	0,00519
308,286	-0,00418
308,5	-0,00012
308,713	0,00231
308,926	0,00957
309,14	0,00973
309,353	0,00392
309,566	-0,00223
309,78	-0,01069
309,993	-0,00953
310,206	-0,00524
310,419	0,00053
310,633	0,00386
310,846	0,01651
311,059	0,02068
311,272	0,01418
311,486	0,01766
311,699	0,02001
311,912	0,01647
312,125	0,0291
312,338	0,02747
312,551	0,03167
312,764	0,03242
312,978	0,04787
313,191	0,04439
313,404	0,04558
313,617	0,03624
313,83	0,03193
314,043	0,03639
314,256	0,0353
314,469	0,03079
314,682	0,02958
314,895	0,02257
315,108	0,022
315,321	0,01219
315,534	0,00811
315,747	0,01313
315,96	0,02335
316,173	0,02232
316,386	0,01522
316,599	0,02082
316,812	0,02679
317,025	0,03599
317,237	0,03488
317,45	0,02708
317,663	0,02677
317,876	0,03534
318,089	0,02842
318,302	0,01694
318,515	0,01184
318,727	0,00884
318,94	0,0011
319,153	0,00067
319,366	-0,00579
319,578	-0,00602
319,791	-0,00555
320,004	-0,01056
320,217	-0,01816
320,429	-0,01029
320,642	-0,00227
320,855	-0,00265
321,067	-0,00226
321,28	0,00471
321,493	0,0058
321,705	0,00616
321,918	0,01122
322,131	0,01236
322,343	0,01583
322,556	0,02154
322,768	0,01887
322,981	0,0146
323,194	0,01726
323,406	0,02145
323,619	0,0178
323,831	0,0204
324,044	0,02645
324,256	0,02296
324,469	0,01541
324,681	0,02045
324,894	0,01737
325,106	0,01676
325,319	0,01581
325,531	0,02271
325,743	0,01202
325,956	0,01496
326,168	0,0095
326,381	0,0064
326,593	0,00697
326,805	0,01811
327,018	0,01215
327,23	0,00258
327,442	0,00515
327,655	0,00294
327,867	-0,00087
328,079	0,00399
328,292	0,00853
328,504	0,01315
328,716	0,00816
328,928	0,0141
329,141	0,01353
329,353	0,01622
329,565	0,02114
329,777	0,02596
329,99	0,02737
330,202	0,0334
330,414	0,0332
330,626	0,02231
330,838	0,02426
331,05	0,02713
331,263	0,02088
331,475	0,0248
331,687	0,0233
331,899	0,03291
332,111	0,02525
332,323	0,03229
332,535	0,02714
332,747	0,03231
332,959	0,03025
333,171	0,02941
333,383	0,03046
333,595	0,03048
333,807	0,02579
334,019	0,02276
334,231	0,00952
334,443	0,00286
334,655	0,00562
334,867	0,00346
335,079	0,00615
335,291	0,0098
335,503	0,00293
335,714	-0,00122
335,926	0,00528
336,138	0,00544
336,35	0,00418
336,562	0,01926
336,774	0,02621
336,986	0,01994
337,197	0,01807
337,409	0,00998
337,621	0,01014
337,833	0,00959
338,044	0,01533
338,256	0,01046
338,468	0,00933
338,68	0,00612
338,891	-0,00011
339,103	-0,00712
339,315	-0,0114
339,526	-0,00835
339,738	-0,00985
339,95	-0,01164
340,161	-0,00243
340,373	-0,01642
340,585	-0,02808
340,796	-0,03049
341,008	-0,02007
341,219	-0,01257
341,431	-0,00787
341,642	-0,0015
341,854	0,00231
342,065	0,01192
342,277	0,00938
342,489	0,00065
342,7	0,0163
342,912	0,02762
343,123	0,03344
343,334	0,02581
343,546	0,00896
343,757	0,01166
343,969	0,00388
344,18	-0,0045
344,392	-0,0069
344,603	0,00948
344,814	0,01566
345,026	0,0142
345,237	0,01867
345,448	0,02272
345,66	0,02541
345,871	0,03401
346,082	0,03788
346,294	0,04114
346,505	0,04967
346,716	0,04919
346,927	0,04565
347,139	0,04071
347,35	0,03546
347,561	0,02847
347,772	0,01571
347,984	0,02045
348,195	0,01756
348,406	0,01563
348,617	0,02061
348,828	0,01907
349,039	0,01564
349,251	0,0116
349,462	0,00984
349,673	0,00376
349,884	0,00793
350,095	0,0103
350,306	0,00145
350,517	0,00674
350,728	0,00284
350,939	-0,00411
351,15	-0,00634
351,361	-0,00113
351,572	0,00319
351,783	0,0076
351,994	0,01521
352,205	0,01705
352,416	0,02096
352,627	0,03093
352,838	0,02807
353,049	0,03652
353,26	0,03718
353,471	0,03541
353,682	0,03318
353,893	0,02877
354,103	0,02962
354,314	0,02999
354,525	0,02736
354,736	0,03009
354,947	0,02652
355,157	0,02745
355,368	0,01928
355,579	0,01532
355,79	0,01925
356,001	0,02035
356,211	0,02441
356,422	0,00888
356,633	0,01032
356,843	0,0015
357,054	-0,00512
357,265	-0,0009
357,476	-0,00232
357,686	-0,00524
357,897	0,00659
358,107	-0,00088
358,318	-0,00109
358,529	-0,00222
358,739	0,01339
358,95	0,01069
359,16	0,01754
359,371	0,01768
359,582	0,00904
359,792	0,01609
360,003	0,02014
360,213	0,0132
360,424	0,01781
360,634	0,01974
360,845	0,01675
361,055	0,01319
361,266	0,01401
361,476	0,02479
361,686	0,02801
361,897	0,03292
362,107	0,02435
362,318	0,02274
362,528	0,02452
362,738	0,02105
362,949	0,01843
363,159	0,01885
363,369	0,02
363,58	0,01971
363,79	0,01123
364	0,01237
364,211	0,01046
364,421	0,00738
364,631	0,01266
364,842	0,01097
365,052	0,01686
365,262	0,01405
365,472	0,01551
365,682	0,0148
365,893	0,01821
366,103	0,02297
366,313	0,01636
366,523	0,02227
366,733	0,02252
366,943	0,02006
367,154	0,02166
367,364	0,02336
367,574	0,02848
367,784	0,02894
367,994	0,03205
368,204	0,02776
368,414	0,02303
368,624	0,02128
368,834	0,01498
369,044	0,02132
369,254	0,02024
369,464	0,02168
369,674	0,01936
369,884	0,01793
370,094	0,01367
370,304	0,00711
370,514	0,01113
370,724	0,00665
370,934	0,00998
371,144	0,01029
371,353	0,00979
371,563	0,01233
371,773	0,0135
371,983	0,00974
372,193	0,00714
372,403	0,00822
372,612	0,01129
372,822	0,00827
373,032	0,01005
373,242	0,01272
373,452	0,01601
373,661	0,01348
373,871	0,0104
374,081	0,01132
374,29	0,01453
374,5	0,01303
374,71	0,01297
374,92	0,01136
375,129	0,00921
375,339	0,01475
375,549	0,01667
375,758	0,01087
375,968	0,00882
376,177	0,00886
376,387	0,00841
376,597	0,00947
376,806	0,01319
377,016	0,01352
377,225	0,01673
377,435	0,01691
377,644	0,00858
377,854	0,0032
378,063	0,00519
378,273	0,0094
378,482	0,01144
378,692	0,00998
378,901	0,0077
379,111	0,00728
379,32	0,01047
379,529	0,00909
379,739	0,01159
379,948	0,01375
380,158	0,02059
380,367	0,02475
380,576	0,02516
380,786	0,02015
380,995	0,0215
381,204	0,02637
381,414	0,02902
381,623	0,02583
381,832	0,02622
382,041	0,02405
382,251	0,0274
382,46	0,02294
382,669	0,01835
382,878	0,02018
383,088	0,02222
383,297	0,02261
383,506	0,01852
383,715	0,01131
383,924	0,01082
384,133	0,00857
384,342	0,01222
384,552	0,01073
384,761	0,01376
384,97	0,01754
385,179	0,01487
385,388	0,01474
385,597	0,00979
385,806	0,00997
386,015	0,0123
386,224	0,01579
386,433	0,01738
386,642	0,01258
386,851	0,01364
387,06	0,01276
387,269	0,01312
387,478	0,01306
387,687	0,01847
387,896	0,02109
388,105	0,02043
388,314	0,01941
388,523	0,01634
388,731	0,01727
388,94	0,01946
389,149	0,01796
389,358	0,01892
389,567	0,02137
389,776	0,02112
389,984	0,01897
390,193	0,01979
390,402	0,01992
390,611	0,0238
390,819	0,02329
391,028	0,02319
391,237	0,02562
391,446	0,02715
391,654	0,02345
391,863	0,01984
392,072	0,01756
392,28	0,017
392,489	0,01759
392,698	0,01837
392,906	0,01832
393,115	0,01788
393,324	0,02038
393,532	0,01826
393,741	0,01535
393,949	0,01468
394,158	0,01464
394,366	0,01627
394,575	0,01538
394,783	0,01406
394,992	0,01292
395,2	0,00814
395,409	0,00963
395,617	0,00577
395,826	0,00511
396,034	0,00506
396,243	0,00844
396,451	0,00756
396,66	0,01058
396,868	0,01147
397,076	0,01168
397,285	0,00978
397,493	0,01203
397,701	0,01341
397,91	0,01376
398,118	0,01551
398,326	0,01745
398,535	0,01404
398,743	0,01648
398,951	0,01365
399,159	0,01313
399,368	0,01681
399,576	0,01852
399,784	0,02254
399,992	0,01917
400,201	0,01753
400,409	0,01572
400,617	0,01529
400,825	0,01861
401,033	0,01714
401,241	0,01871
401,45	0,01992
401,658	0,0167
401,866	0,01932
402,074	0,01572
402,282	0,01705
402,49	0,01819
402,698	0,01799
402,906	0,01678
403,114	0,01581
403,322	0,01463
403,53	0,0155
403,738	0,01545
403,946	0,0143
404,154	0,01041
404,362	0,01062
404,57	0,00934
404,778	0,0085
404,986	0,01119
405,194	0,01043
405,402	0,01202
405,609	0,01208
405,817	0,00778
406,025	0,0079
406,233	0,00895
406,441	0,01179
406,649	0,01119
406,856	0,01225
407,064	0,01284
407,272	0,01081
407,48	0,01204
407,687	0,00991
407,895	0,01174
408,103	0,0132
408,311	0,01253
408,518	0,01124
408,726	0,01157
408,934	0,01299
409,141	0,0129
409,349	0,00981
409,557	0,01115
409,764	0,01058
409,972	0,01054
410,18	0,00872
410,387	0,00956
410,595	0,00796
410,802	0,00822
411,01	0,00696
411,217	0,00617
411,425	0,00647
411,632	0,01062
411,84	0,00942
412,047	0,00852
412,255	0,00858
412,462	0,01023
412,67	0,00943
412,877	0,01079
413,085	0,01057
413,292	0,01268
413,499	0,01477
413,707	0,01472
413,914	0,01411
414,122	0,01338
414,329	0,01503
414,536	0,01469
414,744	0,01411
414,951	0,01603
415,158	0,01621
415,366	0,01597
415,573	0,01445
415,78	0,01311
415,987	0,01386
416,195	0,01463
416,402	0,01485
416,609	0,01553
416,816	0,01645
417,023	0,01655
417,231	0,01692
417,438	0,01562
417,645	0,01573
417,852	0,01519
418,059	0,01508
418,266	0,01315
418,473	0,01237
418,68	0,01338
418,888	0,01168
419,095	0,01241
419,302	0,01222
419,509	0,01125
419,716	0,01129
419,923	0,01233
420,13	0,01081
420,337	0,01169
420,544	0,01303
420,751	0,01306
420,958	0,01348
421,165	0,0151
421,371	0,01194
421,578	0,01124
421,785	0,00999
421,992	0,01045
422,199	0,01008
422,406	0,01308
422,613	0,01096
422,82	0,01094
423,026	0,00984
423,233	0,0097
423,44	0,00763
423,647	0,00968
423,854	0,01039
424,06	0,01026
424,267	0,00979
424,474	0,00895
424,681	0,00753
424,887	0,00889
425,094	0,00887
425,301	0,01097
425,507	0,0102
425,714	0,00996
425,921	0,00981
426,127	0,00895
426,334	0,00782
426,54	0,00809
426,747	0,00908
426,954	0,0093
427,16	0,0081
427,367	0,00763
427,573	0,00618
427,78	0,00565
427,986	0,00725
428,193	0,00716
428,399	0,00961
428,606	0,01075
428,812	0,01143
429,019	0,01057
429,225	0,01083
429,432	0,01205
429,638	0,01236
429,845	0,01173
430,051	0,01302
430,257	0,01151
430,464	0,01161
430,67	0,00947
430,876	0,01012
431,083	0,00985
431,289	0,01021
431,495	0,01035
431,702	0,0098
431,908	0,0092
432,114	0,00858
432,32	0,00771
432,527	0,00873
432,733	0,00797
432,939	0,00763
433,145	0,00818
433,351	0,00869
433,558	0,00964
433,764	0,00975
433,97	0,00884
434,176	0,00903
434,382	0,01019
434,588	0,01097
434,794	0,01037
435,001	0,01142
435,207	0,01217
435,413	0,01156
435,619	0,01098
435,825	0,01074
436,031	0,00952
436,237	0,01052
436,443	0,01156
436,649	0,01289
436,855	0,01286
437,061	0,01355
437,267	0,01354
437,473	0,01284
437,679	0,01314
437,884	0,01304
438,09	0,01256
438,296	0,01197
438,502	0,01068
438,708	0,00999
438,914	0,00878
439,12	0,00832
439,325	0,00887
439,531	0,0089
439,737	0,00938
439,943	0,00979
440,149	0,01009
440,354	0,01062
440,56	0,01102
440,766	0,01079
440,972	0,01145
441,177	0,0121
441,383	0,01241
441,589	0,01207
441,794	0,01214
442	0,01252
442,206	0,01173
442,411	0,01176
442,617	0,0112
442,822	0,01199
443,028	0,01241
443,234	0,01253
443,439	0,0124
443,645	0,01176
443,85	0,01188
444,056	0,01191
444,261	0,01251
444,467	0,01325
444,672	0,01317
444,878	0,01377
445,083	0,01372
445,289	0,01468
445,494	0,01437
445,699	0,01377
445,905	0,01404
446,11	0,01451
446,316	0,01455
446,521	0,01325
446,726	0,01285
446,932	0,01281
447,137	0,01244
447,342	0,01293
447,548	0,01233
447,753	0,01283
447,958	0,01371
448,164	0,0131
448,369	0,01192
448,574	0,01139
448,779	0,0118
448,984	0,01108
449,19	0,01163
449,395	0,01138
449,6	0,01126
449,805	0,01181
450,01	0,01109
450,215	0,01034
450,421	0,0118
450,626	0,01307
450,831	0,01249
451,036	0,01178
451,241	0,01341
451,446	0,01277
451,651	0,0136
451,856	0,01278
452,061	0,0131
452,266	0,01349
452,471	0,01432
452,676	0,0136
452,881	0,01326
453,086	0,01412
453,291	0,01522
453,496	0,01432
453,701	0,01476
453,906	0,01427
454,111	0,01424
454,316	0,01429
454,52	0,01416
454,725	0,01353
454,93	0,01398
455,135	0,01355
455,34	0,01353
455,545	0,01409
455,749	0,01392
455,954	0,01351
456,159	0,01338
456,364	0,01485
456,568	0,01478
456,773	0,01534
456,978	0,016
457,182	0,01646
457,387	0,0165
457,592	0,01687
457,796	0,01602
458,001	0,01634
458,206	0,01703
458,41	0,01751
458,615	0,01634
458,82	0,01591
459,024	0,01599
459,229	0,0158
459,433	0,01551
459,638	0,01594
459,842	0,0159
460,047	0,0161
460,251	0,01574
460,456	0,01529
460,66	0,01575
460,865	0,01627
461,069	0,01702
461,274	0,01667
461,478	0,01616
461,682	0,01608
461,887	0,01645
462,091	0,01661
462,296	0,01744
462,5	0,01814
462,704	0,01853
462,909	0,01797
463,113	0,0178
463,317	0,01778
463,522	0,01841
463,726	0,01947
463,93	0,02014
464,134	0,01998
464,339	0,02017
464,543	0,01984
464,747	0,01974
464,951	0,01989
465,155	0,02036
465,36	0,02089
465,564	0,02092
465,768	0,02026
465,972	0,02082
466,176	0,02069
466,38	0,02078
466,584	0,02114
466,788	0,02091
466,993	0,02097
467,197	0,02047
467,401	0,02024
467,605	0,01991
467,809	0,02022
468,013	0,02085
468,217	0,02004
468,421	0,02024
468,625	0,02033
468,829	0,02014
469,033	0,02014
469,236	0,02062
469,44	0,02028
469,644	0,01996
469,848	0,02044
470,052	0,02078
470,256	0,02011
470,46	0,02027
470,664	0,02029
470,867	0,02067
471,071	0,02079
471,275	0,02104
471,479	0,02075
471,683	0,0219
471,886	0,02257
472,09	0,02294
472,294	0,02224
472,497	0,02289
472,701	0,0233
472,905	0,02329
473,109	0,02338
473,312	0,02362
473,516	0,02447
473,719	0,02458
473,923	0,02468
474,127	0,02481
474,33	0,02437
474,534	0,02505
474,737	0,02539
474,941	0,02558
475,145	0,02548
475,348	0,02542
475,552	0,02553
475,755	0,02513
475,959	0,02585
476,162	0,02614
476,366	0,02638
476,569	0,02686
476,772	0,02699
476,976	0,02685
477,179	0,02693
477,383	0,02731
477,586	0,02741
477,789	0,02754
477,993	0,02787
478,196	0,02761
478,399	0,02756
478,603	0,02774
478,806	0,02816
479,009	0,02808
479,213	0,02836
479,416	0,02825
479,619	0,02913
479,822	0,02931
480,026	0,02968
480,229	0,0294
480,432	0,02989
480,635	0,03005
480,838	0,0301
481,041	0,02975
481,245	0,02991
481,448	0,02986
481,651	0,03051
481,854	0,03014
482,057	0,03016
482,26	0,0303
482,463	0,03086
482,666	0,03107
482,869	0,0313
483,072	0,03148
483,275	0,03177
483,478	0,03181
483,681	0,03232
483,884	0,03223
484,087	0,03255
484,29	0,03307
484,493	0,03329
484,696	0,0337
484,899	0,03395
485,102	0,03391
485,305	0,03402
485,508	0,03464
485,71	0,03517
485,913	0,03537
486,116	0,03549
486,319	0,03584
486,522	0,03599
486,725	0,0361
486,927	0,03628
487,13	0,03632
487,333	0,03662
487,536	0,03728
487,738	0,03737
487,941	0,03764
488,144	0,0382
488,346	0,03857
488,549	0,03842
488,752	0,03903
488,954	0,03938
489,157	0,03949
489,359	0,03988
489,562	0,04016
489,765	0,04024
489,967	0,04033
490,17	0,04075
490,372	0,04074
490,575	0,04105
490,777	0,04158
490,98	0,04145
491,182	0,04149
491,385	0,04187
491,587	0,04211
491,79	0,04265
491,992	0,04273
492,195	0,04323
492,397	0,04319
492,599	0,04365
492,802	0,04378
493,004	0,04404
493,207	0,04432
493,409	0,04503
493,611	0,04531
493,814	0,0457
494,016	0,04562
494,218	0,04595
494,42	0,04606
494,623	0,0465
494,825	0,0465
495,027	0,04676
495,229	0,04705
495,432	0,0471
495,634	0,04717
495,836	0,04728
496,038	0,04744
496,24	0,04786
496,442	0,04792
496,645	0,04821
496,847	0,04853
497,049	0,04876
497,251	0,04906
497,453	0,04932
497,655	0,04993
497,857	0,05037
498,059	0,05091
498,261	0,05108
498,463	0,05148
498,665	0,0522
498,867	0,05248
499,069	0,05278
499,271	0,05308
499,473	0,05351
499,675	0,05388
499,877	0,05421
500,079	0,05437
500,281	0,05453
500,482	0,05498
500,684	0,05541
500,886	0,05553
501,088	0,05591
501,29	0,05629
501,492	0,05665
501,693	0,05719
501,895	0,05755
502,097	0,05792
502,299	0,05814
502,5	0,05856
502,702	0,05898
502,904	0,05951
503,106	0,0602
503,307	0,0604
503,509	0,06076
503,711	0,06128
503,912	0,06184
504,114	0,06219
504,315	0,06261
504,517	0,06322
504,719	0,06367
504,92	0,0639
505,122	0,06393
505,323	0,06387
505,525	0,06434
505,726	0,06476
505,928	0,06518
506,129	0,0653
506,331	0,06577
506,532	0,0663
506,734	0,06653
506,935	0,06687
507,137	0,06724
507,338	0,06749
507,539	0,06804
507,741	0,0687
507,942	0,06895
508,143	0,0693
508,345	0,06947
508,546	0,0695
508,747	0,06988
508,949	0,07048
509,15	0,07077
509,351	0,07122
509,553	0,07163
509,754	0,07211
509,955	0,07245
510,156	0,07292
510,357	0,07333
510,559	0,07398
510,76	0,07448
510,961	0,07486
511,162	0,07508
511,363	0,07536
511,564	0,07563
511,766	0,07623
511,967	0,07686
512,168	0,07727
512,369	0,07763
512,57	0,07811
512,771	0,07882
512,972	0,07961
513,173	0,08009
513,374	0,08066
513,575	0,08123
513,776	0,08199
513,977	0,08221
514,178	0,08253
514,379	0,08312
514,58	0,08362
514,781	0,08419
514,981	0,08443
515,182	0,08457
515,383	0,08486
515,584	0,0853
515,785	0,08588
515,986	0,08627
516,187	0,08724
516,387	0,08754
516,588	0,08798
516,789	0,08868
516,99	0,089
517,19	0,08953
517,391	0,09024
517,592	0,09086
517,793	0,09133
517,993	0,09203
518,194	0,09251
518,395	0,09294
518,595	0,09371
518,796	0,09394
518,996	0,09422
519,197	0,09473
519,398	0,09493
519,598	0,09532
519,799	0,09578
519,999	0,0963
520,2	0,09671
520,4	0,09716
520,601	0,09751
520,801	0,09781
521,002	0,09841
521,202	0,09894
521,403	0,09935
521,603	0,09997
521,804	0,1003
522,004	0,10067
522,204	0,1011
522,405	0,10157
522,605	0,10194
522,806	0,10243
523,006	0,10303
523,206	0,10365
523,407	0,10433
523,607	0,10482
523,807	0,10536
524,007	0,10591
524,208	0,1064
524,408	0,10681
524,608	0,10727
524,808	0,10794
525,009	0,10862
525,209	0,10891
525,409	0,10949
525,609	0,10977
525,809	0,11056
526,009	0,11098
526,209	0,11146
526,41	0,11203
526,61	0,11299
526,81	0,11334
527,01	0,11371
527,21	0,1139
527,41	0,11454
527,61	0,11469
527,81	0,11529
528,01	0,11545
528,21	0,11609
528,41	0,11664
528,61	0,11704
528,81	0,11708
529,01	0,1176
529,21	0,11812
529,41	0,11853
529,609	0,1188
529,809	0,11919
530,009	0,11968
530,209	0,12027
530,409	0,12058
530,609	0,12103
530,808	0,12153
531,008	0,12209
531,208	0,12257
531,408	0,12319
531,608	0,12367
531,807	0,12419
532,007	0,12501
532,207	0,12529
532,406	0,12571
532,606	0,12634
532,806	0,12687
533,005	0,12713
533,205	0,12733
533,405	0,12769
533,604	0,12809
533,804	0,12864
534,003	0,12918
534,203	0,12922
534,403	0,12952
534,602	0,13001
534,802	0,13013
535,001	0,13052
535,201	0,13106
535,4	0,13161
535,6	0,13197
535,799	0,13202
535,998	0,13252
536,198	0,13284
536,397	0,13324
536,597	0,13377
536,796	0,13396
536,995	0,13446
537,195	0,13462
537,394	0,1348
537,594	0,1351
537,793	0,13552
537,992	0,13617
538,191	0,13643
538,391	0,1367
538,59	0,13719
538,789	0,13748
538,988	0,13765
539,188	0,1379
539,387	0,13846
539,586	0,13905
539,785	0,13935
539,984	0,13979
540,184	0,13991
540,383	0,14008
540,582	0,14042
540,781	0,14079
540,98	0,14119
541,179	0,14179
541,378	0,142
541,577	0,14201
541,776	0,14224
541,975	0,14257
542,174	0,1427
542,373	0,14289
542,572	0,14319
542,771	0,14351
542,97	0,14355
543,169	0,14363
543,368	0,14382
543,567	0,14403
543,766	0,14442
543,965	0,14446
544,164	0,14447
544,362	0,14482
544,561	0,14529
544,76	0,14552
544,959	0,1458
545,158	0,1462
545,356	0,1465
545,555	0,14667
545,754	0,14704
545,953	0,14731
546,151	0,14775
546,35	0,14809
546,549	0,14806
546,748	0,14827
546,946	0,1484
547,145	0,14869
547,344	0,14895
547,542	0,14906
547,741	0,14925
547,939	0,1493
548,138	0,14932
548,337	0,14932
548,535	0,14952
548,734	0,1499
548,932	0,14983
549,131	0,15014
549,329	0,15023
549,528	0,15034
549,726	0,15045
549,925	0,15051
550,123	0,15083
550,322	0,15115
550,52	0,15138
550,718	0,15157
550,917	0,15163
551,115	0,15181
551,313	0,15191
551,512	0,15189
551,71	0,152
551,908	0,15229
552,107	0,15273
552,305	0,15287
552,503	0,15305
552,702	0,15304
552,9	0,15314
553,098	0,15327
553,296	0,15352
553,495	0,15372
553,693	0,154
553,891	0,15422
554,089	0,15439
554,287	0,15436
554,485	0,15442
554,683	0,15435
554,882	0,15471
555,08	0,15503
555,278	0,15512
555,476	0,15521
555,674	0,15526
555,872	0,15544
556,07	0,15556
556,268	0,15569
556,466	0,15577
556,664	0,15593
556,862	0,15611
557,06	0,15626
557,258	0,1562
557,456	0,15655
557,654	0,15685
557,851	0,15706
558,049	0,15716
558,247	0,15728
558,445	0,15761
558,643	0,15786
558,841	0,15808
559,039	0,15838
559,236	0,15868
559,434	0,159
559,632	0,15902
559,83	0,15923
560,027	0,1595
560,225	0,15971
560,423	0,15997
560,62	0,16013
560,818	0,16031
561,016	0,16054
561,213	0,16083
561,411	0,16097
561,609	0,16112
561,806	0,16145
562,004	0,16155
562,202	0,16171
562,399	0,16193
562,597	0,16228
562,794	0,16255
562,992	0,16291
563,189	0,1631
563,387	0,16324
563,584	0,16362
563,782	0,16395
563,979	0,16417
564,177	0,1644
564,374	0,16474
564,571	0,1652
564,769	0,16538
564,966	0,1655
565,164	0,16586
565,361	0,16623
565,558	0,16663
565,756	0,16672
565,953	0,16706
566,15	0,16738
566,347	0,16796
566,545	0,16814
566,742	0,16827
566,939	0,16856
567,136	0,16897
567,334	0,16904
567,531	0,16952
567,728	0,16988
567,925	0,17041
568,122	0,17081
568,319	0,17124
568,517	0,17141
568,714	0,17183
568,911	0,17229
569,108	0,17269
569,305	0,17304
569,502	0,17365
569,699	0,17392
569,896	0,17435
570,093	0,17471
570,29	0,17507
570,487	0,17543
570,684	0,17606
570,881	0,17655
571,078	0,17702
571,275	0,17744
571,472	0,17788
571,669	0,17805
571,866	0,17855
572,062	0,17875
572,259	0,17917
572,456	0,1794
572,653	0,17989
572,85	0,18026
573,047	0,18065
573,243	0,18112
573,44	0,1816
573,637	0,18195
573,834	0,18268
574,03	0,18307
574,227	0,18368
574,424	0,18425
574,62	0,18489
574,817	0,18539
575,014	0,18586
575,21	0,18632
575,407	0,18663
575,604	0,18712
575,8	0,1878
575,997	0,18834
576,193	0,18883
576,39	0,18932
576,586	0,18964
576,783	0,19013
576,979	0,19058
577,176	0,19103
577,372	0,19149
577,569	0,19206
577,765	0,19245
577,962	0,1929
578,158	0,19323
578,355	0,19362
578,551	0,19417
578,747	0,19478
578,944	0,19534
579,14	0,19583
579,336	0,19635
579,533	0,19688
579,729	0,19734
579,925	0,19785
580,122	0,19836
580,318	0,19874
580,514	0,19928
580,71	0,1996
580,906	0,20005
581,103	0,20067
581,299	0,20104
581,495	0,20126
581,691	0,20176
581,887	0,20227
582,084	0,2027
582,28	0,2031
582,476	0,20377
582,672	0,2041
582,868	0,20458
583,064	0,20492
583,26	0,20515
583,456	0,20552
583,652	0,20595
583,848	0,20635
584,044	0,20653
584,24	0,20665
584,436	0,20701
584,632	0,20711
584,828	0,20749
585,024	0,20773
585,22	0,20798
585,416	0,20808
585,611	0,20839
585,807	0,20876
586,003	0,20896
586,199	0,20929
586,395	0,20976
586,591	0,20981
586,786	0,21014
586,982	0,21026
587,178	0,21056
587,374	0,21066
587,569	0,21079
587,765	0,21086
587,961	0,21097
588,156	0,21099
588,352	0,2111
588,548	0,21122
588,743	0,21141
588,939	0,21121
589,135	0,21137
589,33	0,21129
589,526	0,21135
589,721	0,21153
589,917	0,21148
590,112	0,21136
590,308	0,21123
590,503	0,21125
590,699	0,21102
590,894	0,21087
591,09	0,21097
591,285	0,21076
591,481	0,21064
591,676	0,2106
591,872	0,21029
592,067	0,21018
592,262	0,21003
592,458	0,20988
592,653	0,20964
592,848	0,2094
593,044	0,20906
593,239	0,20876
593,434	0,20832
593,629	0,2079
593,825	0,20747
594,02	0,20709
594,215	0,20685
594,41	0,20649
594,606	0,20612
594,801	0,20572
594,996	0,20538
595,191	0,20512
595,386	0,20462
595,581	0,20426
595,777	0,20398
595,972	0,20338
596,167	0,20289
596,362	0,20216
596,557	0,2016
596,752	0,20116
596,947	0,20052
597,142	0,19987
597,337	0,19913
597,532	0,19855
597,727	0,19788
597,922	0,19711
598,117	0,19642
598,312	0,19579
598,507	0,19529
598,701	0,19449
598,896	0,19356
599,091	0,19268
599,286	0,19196
599,481	0,19108
599,676	0,19031
599,87	0,18942
600,065	0,18852
600,26	0,18776
600,455	0,18686
600,65	0,18578
600,844	0,18491
601,039	0,18397
601,234	0,18327
601,428	0,18242
601,623	0,18161
601,818	0,18058
602,012	0,1799
602,207	0,17895
602,402	0,17798
602,596	0,17692
602,791	0,17596
602,985	0,17508
603,18	0,17411
603,374	0,17305
603,569	0,17201
603,763	0,17103
603,958	0,16993
604,152	0,16876
604,347	0,16761
604,541	0,16648
604,736	0,16553
604,93	0,16448
605,125	0,16322
605,319	0,16215
605,513	0,16095
605,708	0,1598
605,902	0,15846
606,096	0,15732
606,291	0,15624
606,485	0,15513
606,679	0,15416
606,874	0,1529
607,068	0,15175
607,262	0,15071
607,456	0,14958
607,65	0,14839
607,845	0,14721
608,039	0,1463
608,233	0,14517
608,427	0,14392
608,621	0,14299
608,815	0,14171
609,01	0,14071
609,204	0,13952
609,398	0,13853
609,592	0,13736
609,786	0,13638
609,98	0,13538
610,174	0,13419
610,368	0,13317
610,562	0,13209
610,756	0,13086
610,95	0,12981
611,144	0,12859
611,338	0,12745
611,532	0,12602
611,726	0,12499
611,919	0,12387
612,113	0,12269
612,307	0,12148
612,501	0,12023
612,695	0,11908
612,889	0,11782
613,082	0,11666
613,276	0,11558
613,47	0,11465
613,664	0,11361
613,857	0,11234
614,051	0,11108
614,245	0,10997
614,439	0,1089
614,632	0,10798
614,826	0,10676
615,02	0,10573
615,213	0,10479
615,407	0,1037
615,6	0,10249
615,794	0,10146
615,988	0,10049
616,181	0,09949
616,375	0,09843
616,568	0,09738
616,762	0,09626
616,955	0,09546
617,149	0,09439
617,342	0,0932
617,536	0,09227
617,729	0,09144
617,923	0,09055
618,116	0,08963
618,309	0,08866
618,503	0,08763
618,696	0,08668
618,889	0,0858
619,083	0,08466
619,276	0,08379
619,469	0,08286
619,663	0,08198
619,856	0,08089
620,049	0,08004
620,242	0,07913
620,436	0,07815
620,629	0,07738
620,822	0,07647
621,015	0,07558
621,209	0,07476
621,402	0,07393
621,595	0,07309
621,788	0,07218
621,981	0,07141
622,174	0,07048
622,367	0,06964
622,56	0,06885
622,753	0,06797
622,946	0,06712
623,139	0,0663
623,332	0,0656
623,525	0,06479
623,718	0,06403
623,911	0,06336
624,104	0,06264
624,297	0,06191
624,49	0,06119
624,683	0,06062
624,876	0,05996
625,069	0,05925
625,262	0,05862
625,454	0,05788
625,647	0,0572
625,84	0,05643
626,033	0,05579
626,226	0,0551
626,418	0,05443
626,611	0,05379
626,804	0,05304
626,997	0,05232
627,189	0,05179
627,382	0,05104
627,575	0,05045
627,767	0,04997
627,96	0,04943
628,153	0,04862
628,345	0,04796
628,538	0,04733
628,731	0,04667
628,923	0,04605
629,116	0,04562
629,308	0,04491
629,501	0,04446
629,693	0,04399
629,886	0,04341
630,078	0,04284
630,271	0,04242
630,463	0,04189
630,656	0,0414
630,848	0,04094
631,04	0,04049
631,233	0,03991
631,425	0,03954
631,617	0,03906
631,81	0,03848
632,002	0,03796
632,194	0,03761
632,387	0,03709
632,579	0,03665
632,771	0,03608
632,964	0,03565
633,156	0,03514
633,348	0,03464
633,54	0,03426
633,732	0,03369
633,925	0,03336
634,117	0,03304
634,309	0,03256
634,501	0,03213
634,693	0,03173
634,885	0,03137
635,077	0,03096
635,269	0,03065
635,462	0,03031
635,654	0,0299
635,846	0,02967
636,038	0,02924
636,23	0,02887
636,422	0,02856
636,614	0,0283
636,806	0,02802
636,997	0,02775
637,189	0,02738
637,381	0,02701
637,573	0,02673
637,765	0,02643
637,957	0,02595
638,149	0,02559
638,341	0,0253
638,532	0,02489
638,724	0,02452
638,916	0,02426
639,108	0,02392
639,299	0,02376
639,491	0,0235
639,683	0,02331
639,875	0,02312
640,066	0,02304
640,258	0,02274
640,45	0,02238
640,641	0,02231
640,833	0,02206
641,025	0,02181
641,216	0,02156
641,408	0,0212
641,599	0,02096
641,791	0,02074
641,982	0,02033
642,174	0,01994
642,366	0,0198
642,557	0,01954
642,748	0,01913
642,94	0,01893
643,131	0,01864
643,323	0,0185
643,514	0,01826
643,706	0,01804
643,897	0,01769
644,088	0,01754
644,28	0,0174
644,471	0,0172
644,662	0,0171
644,854	0,01702
645,045	0,01677
645,236	0,01652
645,428	0,01628
645,619	0,01608
645,81	0,01596
646,001	0,01574
646,193	0,01565
646,384	0,01535
646,575	0,01516
646,766	0,01489
646,957	0,01461
647,148	0,01446
647,339	0,01435
647,531	0,01428
647,722	0,01418
647,913	0,01392
648,104	0,01378
648,295	0,01355
648,486	0,01343
648,677	0,01328
648,868	0,01318
649,059	0,01302
649,25	0,01295
649,441	0,01281
649,632	0,01251
649,823	0,0124
650,013	0,01237
650,204	0,01222
650,395	0,01208
650,586	0,01197
650,777	0,01182
650,968	0,01166
651,159	0,01161
651,349	0,01138
651,54	0,01122
651,731	0,01102
651,922	0,01086
652,112	0,01072
652,303	0,01065
652,494	0,01051
652,684	0,0105
652,875	0,01038
653,066	0,0103
653,256	0,01027
653,447	0,01023
653,638	0,01017
653,828	0,0102
654,019	0,01011
654,209	0,00998
654,4	0,00986
654,59	0,00981
654,781	0,00976
654,972	0,00968
655,162	0,00963
655,352	0,00943
655,543	0,0093
655,733	0,00922
655,924	0,00931
656,114	0,00916
656,305	0,00905
656,495	0,00901
656,685	0,0089
656,876	0,00882
657,066	0,00874
657,256	0,00866
657,447	0,00863
657,637	0,00861
657,827	0,00848
658,017	0,00824
658,208	0,0082
658,398	0,00803
658,588	0,00787
658,778	0,00783
658,968	0,00757
659,159	0,00755
659,349	0,00743
659,539	0,00721
659,729	0,00713
659,919	0,00713
660,109	0,00706
660,299	0,00703
660,489	0,00708
660,679	0,00714
660,869	0,00707
661,059	0,00712
661,249	0,007
661,439	0,00689
661,629	0,00699
661,819	0,00691
662,009	0,00685
662,199	0,00681
662,389	0,00674
662,579	0,00669
662,769	0,00654
662,959	0,00649
663,149	0,00649
663,338	0,00652
663,528	0,00653
663,718	0,00645
663,908	0,00633
664,097	0,0062
664,287	0,00613
664,477	0,00611
664,667	0,00603
664,856	0,00598
665,046	0,0059
665,236	0,00583
665,425	0,00578
665,615	0,00572
665,805	0,00572
665,994	0,00583
666,184	0,00583
666,373	0,00591
666,563	0,00584
666,753	0,0058
666,942	0,00577
667,132	0,00564
667,321	0,00558
667,511	0,00554
667,7	0,00549
667,889	0,00531
668,079	0,00519
668,268	0,00518
668,458	0,00508
668,647	0,00508
668,836	0,0051
669,026	0,00508
669,215	0,00503
669,404	0,00503
669,594	0,00488
669,783	0,00488
669,972	0,00496
670,162	0,00504
670,351	0,00495
670,54	0,00484
670,729	0,00474
670,919	0,00465
671,108	0,00463
671,297	0,00468
671,486	0,00459
671,675	0,00461
671,864	0,00453
672,053	0,00452
672,243	0,00438
672,432	0,00432
672,621	0,00431
672,81	0,0043
672,999	0,00432
673,188	0,00435
673,377	0,00436
673,566	0,00432
673,755	0,00428
673,944	0,00429
674,133	0,00421
674,322	0,00427
674,51	0,00439
674,699	0,00436
674,888	0,0043
675,077	0,00424
675,266	0,00411
675,455	0,00408
675,644	0,00408
675,832	0,00409
676,021	0,00412
676,21	0,00417
676,399	0,00402
676,587	0,0039
676,776	0,0039
676,965	0,0039
677,153	0,00386
677,342	0,00388
677,531	0,0038
677,719	0,00371
677,908	0,00363
678,097	0,00359
678,285	0,00338
678,474	0,0035
678,662	0,00357
678,851	0,0036
679,039	0,00351
679,228	0,0035
679,416	0,00353
679,605	0,00353
679,793	0,00362
679,982	0,00366
680,17	0,00357
680,359	0,00366
680,547	0,00354
680,736	0,00353
680,924	0,00347
681,112	0,00351
681,301	0,00353
681,489	0,0035
681,677	0,00345
681,866	0,00337
682,054	0,00325
682,242	0,00332
682,43	0,00336
682,619	0,00337
682,807	0,00322
682,995	0,00314
683,183	0,00307
683,371	0,00315
683,559	0,00304
683,748	0,0031
683,936	0,00313
684,124	0,00316
684,312	0,0031
684,5	0,00293
684,688	0,00294
684,876	0,00301
685,064	0,00296
685,252	0,003
685,44	0,00291
685,628	0,00293
685,816	0,00295
686,004	0,00288
686,192	0,00287
686,38	0,00285
686,568	0,00293
686,756	0,00291
686,944	0,00285
687,131	0,00291
687,319	0,00297
687,507	0,00295
687,695	0,00291
687,883	0,00279
688,07	0,0028
688,258	0,00279
688,446	0,00283
688,634	0,00288
688,821	0,00285
689,009	0,00284
689,197	0,00296
689,384	0,0029
689,572	0,00285
689,76	0,00293
689,947	0,003
690,135	0,00303
690,323	0,00308
690,51	0,00303
690,698	0,00299
690,885	0,00302
691,073	0,003
691,26	0,00286
691,448	0,00286
691,635	0,00284
691,823	0,00281
692,01	0,00273
692,197	0,00261
692,385	0,00259
692,572	0,00252
692,76	0,00246
692,947	0,00245
693,134	0,00256
693,322	0,00252
693,509	0,00245
693,696	0,00244
693,884	0,00237
694,071	0,0024
694,258	0,00244
694,445	0,00241
694,633	0,00246
694,82	0,0024
695,007	0,00241
695,194	0,00237
695,381	0,00236
695,568	0,00231
695,756	0,00237
695,943	0,00239
696,13	0,00232
696,317	0,00234
696,504	0,00232
696,691	0,00235
696,878	0,00234
697,065	0,00227
697,252	0,00227
697,439	0,00232
697,626	0,00231
697,813	0,00225
698	0,00221
698,187	0,00223
698,374	0,00231
698,561	0,00228
698,747	0,00224
698,934	0,00226
699,121	0,00237
699,308	0,00234
699,495	0,00231
699,682	0,00236
699,868	0,00234
700,055	0,00231
700,242	0,00223
700,429	0,00207
700,615	0,00204
700,802	0,00196
700,989	0,00196
701,175	0,00182
701,362	0,00185
701,549	0,00187
701,735	0,00185
701,922	0,00182
702,108	0,00199
702,295	0,00205
702,482	0,00201
702,668	0,0021
702,855	0,00215
703,041	0,00218
703,228	0,0022
703,414	0,00206
703,601	0,002
703,787	0,00206
703,973	0,00201
704,16	0,00178
704,346	0,00185
704,533	0,00191
704,719	0,00187
704,905	0,00173
705,092	0,00176
705,278	0,00178
705,464	0,00176
705,65	0,00175
705,837	0,00168
706,023	0,00172
706,209	0,00183
706,395	0,00175
706,582	0,00176
706,768	0,00174
706,954	0,00198
707,14	0,00189
707,326	0,0019
707,512	0,00192
707,698	0,00195
707,885	0,00197
708,071	0,0019
708,257	0,00183
708,443	0,00187
708,629	0,00193
708,815	0,00192
709,001	0,00175
709,187	0,00165
709,373	0,00166
709,559	0,0016
709,745	0,00158
709,93	0,00147
710,116	0,00155
710,302	0,00162
710,488	0,00168
710,674	0,00168
710,86	0,00164
711,046	0,00177
711,231	0,0019
711,417	0,00185
711,603	0,00195
711,789	0,00187
711,974	0,00202
712,16	0,00198
712,346	0,00189
712,532	0,00181
712,717	0,0017
712,903	0,00162
713,089	0,00147
713,274	0,00144
713,46	0,00137
713,645	0,00136
713,831	0,00141
714,016	0,00129
714,202	0,00137
714,388	0,00153
714,573	0,00146
714,759	0,00148
714,944	0,0015
715,129	0,0015
715,315	0,00148
715,5	0,00144
715,686	0,00143
715,871	0,00141
716,057	0,00143
716,242	0,00138
716,427	0,00116
716,613	0,00118
716,798	0,00118
716,983	0,00122
717,168	0,00127
717,354	0,00137
717,539	0,00148
717,724	0,00151
717,909	0,00161
718,095	0,00167
718,28	0,0016
718,465	0,00164
718,65	0,00165
718,835	0,00164
719,02	0,00156
719,206	0,00154
719,391	0,00153
719,576	0,00143
719,761	0,00135
719,946	0,00128
720,131	0,00125
720,316	0,00131
720,501	0,00136
720,686	0,00145
720,871	0,00154
721,056	0,00165
721,241	0,00162
721,426	0,00148
721,61	0,00155
721,795	0,00148
721,98	0,00141
722,165	0,00139
722,35	0,00148
722,535	0,00143
722,719	0,00135
722,904	0,00134
723,089	0,00127
723,274	0,00128
723,458	0,00125
723,643	0,00125
723,828	0,00126
724,013	0,00129
724,197	0,00121
724,382	0,00106
724,567	0,00111
724,751	0,00118
724,936	0,00112
725,12	0,00107
725,305	0,00112
725,489	0,00121
725,674	0,00121
725,859	0,00131
726,043	0,00136
726,228	0,00151
726,412	0,00153
726,596	0,00147
726,781	0,00141
726,965	0,00143
727,15	0,00159
727,334	0,0015
727,518	0,00141
727,703	0,00147
727,887	0,0014
728,072	0,00138
728,256	0,00127
728,44	0,00133
728,624	0,00138
728,809	0,00128
728,993	0,00128
729,177	0,00123
729,361	0,00131
729,546	0,0013
729,73	0,00128
729,914	0,00118
730,098	0,00116
730,282	0,00112
730,466	0,00099
730,65	0,00099
730,834	0,00103
731,019	0,00088
731,203	0,00077
731,387	0,00081
731,571	0,0008
731,755	0,00079
731,939	0,00091
732,123	0,00091
732,306	0,00095
732,49	0,00108
732,674	0,00109
732,858	0,00106
733,042	0,00115
733,226	0,00134
733,41	0,00133
733,594	0,00145
733,778	0,0014
733,961	0,00141
734,145	0,00143
734,329	0,00148
734,513	0,00143
734,696	0,00143
734,88	0,00153
735,064	0,00147
735,247	0,00139
735,431	0,00133
735,615	0,00127
735,798	0,00139
735,982	0,00134
736,166	0,00144
736,349	0,00138
736,533	0,00145
736,716	0,00143
736,9	0,00137
737,083	0,00146
737,267	0,00142
737,45	0,00136
737,634	0,00134
737,817	0,00124
738,001	0,00123
738,184	0,00105
738,368	0,00109
738,551	0,00097
738,734	0,00089
738,918	0,00091
739,101	0,00098
739,284	0,00098
739,468	0,001
739,651	0,0011
739,834	0,00112
740,018	0,00107
740,201	0,00111
740,384	0,00117
740,567	0,00124
740,75	0,0013
740,934	0,0012
741,117	0,0011
741,3	0,00112
741,483	0,00117
741,666	0,00105
741,849	0,00102
742,032	0,00111
742,215	0,00116
742,399	0,00112
742,582	0,00121
742,765	0,00126
742,948	0,00139
743,131	0,00142
743,314	0,00136
743,496	0,00133
743,679	0,00138
743,862	0,00144
744,045	0,00145
744,228	0,0014
744,411	0,00131
744,594	0,00123
744,777	0,00125
744,959	0,00121
745,142	0,00124
745,325	0,00125
745,508	0,00123
745,691	0,00136
745,873	0,00122
746,056	0,00121
746,239	0,00118
746,421	0,00128
746,604	0,00122
746,787	0,00116
746,969	0,00111
747,152	0,00098
747,335	0,00096
747,517	0,00101
747,7	0,00105
747,882	0,00119
748,065	0,00103
748,247	0,0011
748,43	0,00098
748,612	0,00101
748,795	0,00099
748,977	0,00104
749,16	0,00108
749,342	0,00122
749,524	0,0012
749,707	0,00103
749,889	0,00104
750,072	0,0011
750,254	0,00106
750,436	0,00106
750,619	0,00108
750,801	0,00103
750,983	0,00098
751,165	0,001
751,348	0,00087
751,53	0,0009
751,712	0,00091
751,894	0,0008
752,076	0,00096
752,259	0,00091
752,441	0,00089
752,623	0,00087
752,805	0,00087
752,987	0,00086
753,169	0,00082
753,351	0,00082
753,533	0,00076
753,715	0,0008
753,897	0,00085
754,079	0,00081
754,261	0,0009
754,443	0,00096
754,625	0,001
754,807	0,00112
754,989	0,00119
755,171	0,00125
755,353	0,00125
755,534	0,00126
755,716	0,00129
755,898	0,00119
756,08	0,00121
756,262	0,00114
756,443	0,00107
756,625	0,00115
756,807	0,00095
756,989	0,00088
757,17	0,0008
757,352	0,00084
757,534	0,00095
757,715	0,00079
757,897	0,00087
758,079	0,00077
758,26	0,00085
758,442	0,00093
758,623	0,0008
758,805	0,00086
758,987	0,00083
759,168	0,00081
759,35	0,00068
759,531	0,00068
759,713	0,00071
759,894	0,00064
760,075	0,00064
760,257	0,00051
760,438	0,0005
760,62	0,00045
760,801	0,00055
760,982	0,00054
761,164	0,00054
761,345	0,00072
761,526	0,00067
761,708	0,00065
761,889	0,00066
762,07	0,00065
762,251	0,00081
762,433	0,00079
762,614	0,00081
762,795	0,00077
762,976	0,00078
763,157	0,00088
763,338	0,00075
763,52	0,00069
763,701	0,00071
763,882	0,00072
764,063	0,00076
764,244	0,00068
764,425	0,00068
764,606	0,00065
764,787	0,00059
764,968	0,00071
765,149	0,00061
765,33	0,00065
765,511	0,00059
765,692	0,00053
765,873	0,00055
766,053	0,00043
766,234	0,00038
766,415	0,00045
766,596	0,00043
766,777	0,00041
766,958	0,00017
767,138	0,00029
767,319	0,00023
767,5	0,00028
767,681	0,00029
767,861	0,00043
768,042	0,00047
768,223	0,00053
768,403	0,00043
768,584	0,00047
768,765	0,00047
768,945	0,00052
769,126	0,00047
769,307	0,00057
769,487	0,00048
769,668	0,00056
769,848	0,00047
770,029	0,00052
770,209	0,0005
770,39	0,00054
770,57	0,00058
770,751	0,0006
770,931	0,00055
771,111	0,00039
771,292	0,0004
771,472	0,00048
771,653	0,00047
771,833	0,0004
772,013	0,00036
772,194	0,00039
772,374	0,00027
772,554	0,00027
772,734	0,00032
772,915	0,0005
773,095	0,00058
773,275	0,00055
773,455	0,0007
773,635	0,0005
773,816	0,00057
773,996	0,00062
774,176	0,00062
774,356	0,00069
774,536	0,00074
774,716	0,00067
774,896	0,00058
775,076	0,0006
775,256	0,0006
775,436	0,00045
775,616	0,00069
775,796	0,00067
775,976	0,00066
776,156	0,00062
776,336	0,00064
776,516	0,0005
776,696	0,00048
776,876	0,0006
777,056	0,00052
777,235	0,00054
777,415	0,00058
777,595	0,00041
777,775	0,00039
777,955	0,00032
778,134	0,00026
778,314	0,00031
778,494	0,00039
778,674	0,00052
778,853	0,00034
779,033	0,0004
779,213	0,00038
779,392	0,00038
779,572	0,00047
779,751	0,00036
779,931	0,00037
780,111	0,00041
780,29	0,00032
780,47	0,00021
780,649	0,00001
780,829	0,00012
781,008	0,00019
781,188	0,00021
781,367	0,0001
781,546	0,00003
781,726	0,00005
781,905	0,00003
782,085	0,00001
782,264	0,00013
782,443	0,0002
782,623	0,00033
782,802	0,00025
782,981	0,00016
783,161	0,00011
783,34	0,00021
783,519	0,00032
783,698	0,00038
783,878	0,00046
784,057	0,00037
784,236	0,00033
784,415	0,00035
784,594	0,00033
784,773	0,00045
784,952	0,00052
785,132	0,00046
785,311	0,00055
785,49	0,00039
785,669	0,00034
785,848	0,00035
786,027	0,00038
786,206	0,00041
786,385	0,00034
786,564	0,00037
786,743	0,00032
786,922	0,00026
787,1	0,00031
787,279	0,00018
787,458	0,00018
787,637	0,00031
787,816	0,00025
787,995	0,00019
788,174	0,00015
788,352	0,00026
788,531	0,00023
788,71	0,00026
788,889	0,00033
789,067	0,0003
789,246	0,00023
789,425	0,00038
789,603	0,00022
789,782	0,00027
789,961	0,00047
790,139	0,00058
790,318	0,00053
790,496	0,00056
790,675	0,00065
790,853	0,00053
791,032	0,00052
791,211	0,00061
791,389	0,00049
791,568	0,00058
791,746	0,00062
791,924	0,00052
792,103	0,00038
792,281	0,00031
792,46	0,00031
792,638	0,00022
792,816	0,00032
792,995	0,00039
793,173	0,00032
793,351	0,00036
793,53	0,00046
793,708	0,00044
793,886	0,00044
794,064	0,00041
794,243	0,00054
794,421	0,00059
794,599	0,00059
794,777	0,00054
794,955	0,00043
795,133	0,00054
795,312	0,00055
795,49	0,00044
795,668	0,00035
795,846	0,0004
796,024	0,00058
796,202	0,00051
796,38	0,00042
796,558	0,00027
796,736	0,00018
796,914	0,00028
797,092	0,00012
797,27	0,0001
797,448	0,00008
797,626	0,00002
797,803	-0,00016
797,981	-0,00034
798,159	-0,00035
798,337	-0,00025
798,515	-0,0002
798,693	-0,00015
798,87	-0,00027
799,048	-0,0002
799,226	-0,00014
799,404	-0,00016
799,581	-0,00016
799,759	-0,00004
799,937	-0,00002
800,114	-0,00004
800,292	-0,00018
800,469	0,00001
800,647	-0,00007
800,825	-0,00001
801,002	-0,00006
801,18	-0,00017
801,357	-0,00012
801,535	-0,00001
801,712	-0,00004
801,89	-0,00002
802,067	-0,00001
802,245	-0,00005
802,422	-0,00027
802,6	-0,00019
802,777	-0,00009
802,954	-0,00008
803,132	-0,00004
803,309	-0
803,486	-0,00005
803,664	0,00003
803,841	0,00019
804,018	0,0002
804,195	0,0002
804,373	0,00022
804,55	0,00031
804,727	0,00021
804,904	0,00028
805,081	0,00038
805,259	0,00039
805,436	0,0003
805,613	0,00031
805,79	0,00016
805,967	0,0002
806,144	0,00022
806,321	0,00025
806,498	0,00032
806,675	0,00036
806,852	0,00037
807,029	0,00033
807,206	0,00024
807,383	0,00036
807,56	0,00033
807,737	0,00031
807,914	0,00027
808,091	0,00048
808,268	0,00056
808,444	0,00039
808,621	0,00033
808,798	0,00012
808,975	0,00016
809,152	0,00007
809,328	0,00007
809,505	0,00008
809,682	0,00004
809,858	-0,00002
810,035	-0,00013
810,212	-0,00028
810,388	-0,00012
810,565	0,00005
810,742	0,0002
810,918	-0,00004
811,095	0,00014
811,271	0,00016
811,448	0,00013
811,625	0,00013
811,801	0,0001
811,978	0,00016
812,154	0,00009
812,33	0,00011
812,507	0,00009
812,683	0,00018
812,86	0,00039
813,036	0,00041
813,212	0,00041
813,389	0,00033
813,565	0,00026
813,741	0,0004
813,918	0,00028
814,094	0,00046
814,27	0,00029
814,447	0,00038
814,623	0,00035
814,799	0,00025
814,975	0,00015
815,151	0,00012
815,328	0,00012
815,504	0,00028
815,68	0,00018
815,856	0,00031
816,032	0,00044
816,208	0,00044
816,384	0,0002
816,56	0,00011
816,736	0,00014
816,912	0,0001
817,088	0,00001
817,264	0,00004
817,44	-0,00002
817,616	-0,00012
817,792	-0,00025
817,968	-0,0003
818,144	-0,00024
818,32	-0,00022
818,495	-0,00013
818,671	-0,00004
818,847	-0,00004
819,023	0,00005
819,199	0,00024
819,374	0,00034
819,55	0,00042
819,726	0,00038
819,902	0,00028
820,077	0,00029
820,253	0,00029
820,429	0,00015
820,604	0,00022
820,78	0,0003
820,956	0,00035
821,131	0,00022
821,307	0,00019
821,482	0,00022
821,658	0,00033
821,833	0,00019
822,009	0,00008
822,184	-0,00003
822,36	0,00009
822,535	-0,00007
822,711	-0,00017
822,886	-0,00028
823,061	-0,00046
823,237	-0,00048
823,412	-0,00051
823,587	-0,00051
823,763	-0,00042
823,938	-0,00037
824,113	-0,0003
824,289	-0,0004
824,464	-0,00045
824,639	-0,0003
824,814	-0,00032
824,99	-0,00014
825,165	-0,00014
825,34	-0,00002
825,515	0,00002
825,69	0,00007
825,865	0,00012
826,04	0,00014
826,215	0,00041
826,39	0,00061
826,566	0,00074
826,741	0,00083
826,916	0,00096
827,091	0,0009
827,265	0,00087
827,44	0,00092
827,615	0,00093
827,79	0,00076
827,965	0,00081
828,14	0,00061
828,315	0,00051
828,49	0,0004
828,665	0,0003
828,839	0,00008
829,014	0,00007
829,189	-0,00009
829,364	-0,00013
829,538	0,00002
829,713	0,00029
829,888	0,0002
830,063	0,0002
830,237	0,00014
830,412	0,00015
830,587	0,00021
830,761	0,0004
830,936	0,00044
831,11	0,00058
831,285	0,00043
831,459	0,00044
831,634	0,00021
831,809	0,0004
831,983	0,00043
832,157	0,00046
832,332	0,00023
832,506	0,00031
832,681	0,00015
832,855	0,00006
833,03	-0,00004
833,204	0,00008
833,378	-0,00013
833,553	-0,00018
833,727	-0,00033
833,901	-0,00037
834,076	-0,0002
834,25	-0,00009
834,424	-0,00024
834,598	-0,00014
834,773	0,00001
834,947	0,00012
835,121	-0,00004
835,295	0,00003
835,469	0,00012
835,643	0,00011
835,817	0,00011
835,991	-0,00005
836,166	-0,00013
836,34	0,00005
836,514	0,00002
836,688	0,00007
836,862	-0,00005
837,036	-0,00007
837,21	-0,00011
837,384	-0,00008
837,557	-0,00002
837,731	0,00011
837,905	0,00019
838,079	0,00021
838,253	0,00004
838,427	-0,00012
838,601	-0,00026
838,774	-0,00025
838,948	-0,00015
839,122	-0,00006
839,296	0,00013
839,469	0,00018
839,643	-0,00001
839,817	-0,00022
839,991	-0,00014
840,164	0,00003
840,338	0,00005
840,512	0,00013
840,685	0,00026
840,859	0,00034
841,032	0,0003
841,206	0,00011
841,379	0,00016
841,553	0,00043
841,726	0,00065
841,9	0,00066
842,073	0,00074
842,247	0,00082
842,42	0,00063
842,594	0,00064
842,767	0,00069
842,94	0,00079
843,114	0,00096
843,287	0,00086
843,46	0,00058
843,634	0,00032
843,807	0,00028
843,98	0,00012
844,154	0,00015
844,327	0,00011
844,5	0,0002
844,673	0,00012
844,846	-0,00004
845,02	-0,00013
845,193	-0,00027
845,366	-0,00023
845,539	-0,00015
845,712	-0,00027
845,885	-0,00052
846,058	-0,00065
846,231	-0,00064
846,404	-0,00086
846,577	-0,00096
846,75	-0,00097
846,923	-0,0009
847,096	-0,00074
847,269	-0,00066
847,442	-0,00051
847,615	-0,00038
847,788	-0,00028
847,961	-0,00006
848,133	0,00022
848,306	0,00028
848,479	0,00042
848,652	0,00027
848,825	0,00016
848,997	0,00026
849,17	0,00016
849,343	0,00003
849,515	0,00002
849,688	0,00031
849,861	0,00028
850,033	0,00006
850,206	0,00007
850,379	-0,00014
850,551	-0,00004
850,724	-0,00001
850,896	-0,00023
851,069	-0,00009
851,241	0,00004
851,414	0,00018
851,586	-0,00011
851,759	-0,00018
851,931	-0,00014
852,104	-0,00018
852,276	-0,00001
852,449	0,00016
852,621	0,00009
852,793	-0,0001
852,966	-0,00008
853,138	0,00007
853,31	-0,00006
853,483	0,00021
853,655	0,00024
853,827	0,00016
853,999	0,00004
854,172	-0,00001
854,344	-0,00009
854,516	-0
854,688	0,00039
854,86	0,00021
855,032	-0,00014
855,204	0,00007
855,377	-0,00028
855,549	-0,00011
855,721	0,00012
855,893	0,00022
856,065	0,00029
856,237	0,00027
856,409	0,00005
856,581	-0,00008
856,753	0,00013
856,924	0,00023
857,096	0,0002
857,268	0,00053
857,44	0,00031
857,612	0,00029
857,784	0,00026
857,956	0,00032
858,127	0,00025
858,299	0,00027
858,471	0,00021
858,643	0,00005
858,814	0,00019
858,986	0,00003
859,158	-0,00033
859,33	-0,0003
859,501	-0,00061
859,673	-0,00059
859,844	-0,00058
860,016	-0,00042
860,188	-0,00043
860,359	-0,00013
860,531	-0,00012
860,702	-0,00017
860,874	-0,00036
861,045	-0,00012
861,217	-0,00031
861,388	-0,00005
861,56	0,00005
861,731	-0,00005
861,902	-0,00005
862,074	0,00019
862,245	0,00006
862,417	0,00017
862,588	-0,00003
862,759	-0,00005
862,931	-0,0003
863,102	0,0001
863,273	0,00007
863,444	0,00007
863,616	0,00007
863,787	-0,00012
863,958	-0,00036
864,129	-0,00061
864,3	-0,00073
864,471	-0,00064
864,642	-0,00026
864,814	-0,00028
864,985	-0,00033
865,156	-0,00065
865,327	-0,00075
865,498	-0,00075
865,669	-0,00083
865,84	-0,0004
866,011	-0,00029
866,182	-0,00036
866,353	-0,00033
866,523	-0,00068
866,694	-0,00026
866,865	-0,00029
867,036	-0,00029
867,207	-0,00036
867,378	-0,00069
867,549	-0,00063
867,719	-0,00097
867,89	-0,001
868,061	-0,00092
868,232	-0,00113
868,402	-0,00107
868,573	-0,00138
868,744	-0,0014
868,914	-0,00125
869,085	-0,00137
869,256	-0,00115
869,426	-0,00113
869,597	-0,00105
869,767	-0,00094
869,938	-0,00089
870,108	-0,00044
870,279	-0,00032
870,449	-0,00047
870,62	-0,00071
870,79	-0,00057
870,961	-0,00008
871,131	0,00009
871,302	0,00024
871,472	0,00014
871,642	0,00014
871,813	0,00034
871,983	0,00021
872,153	0,00024
872,324	0,00045
872,494	0,00044
872,664	0,00024
872,835	0,00007
873,005	0,00007
873,175	-0,00006
873,345	0,00011
873,515	-0,00003
873,685	-0,00034
873,856	-0,00047
874,026	-0,0004
874,196	-0,00017
874,366	-0,0001
874,536	-0,00002
874,706	-0,00023
874,876	-0,00033
875,046	-0,00047
875,216	-0,00056
875,386	-0,00024
875,556	-0,00008
875,726	-0,00017
875,896	-0,00031
876,066	-0,00046
876,236	-0,00059
876,405	-0,00063
876,575	-0,00067
876,745	-0,00085
876,915	-0,00043
877,085	-0,0003
877,254	-0,00047
877,424	-0,00061
877,594	-0,00049
877,764	-0,00045
877,933	-0,00054
878,103	-0,00045
878,273	-0,0002
878,442	-0,00006
878,612	-0,00006
878,781	-0,00046
878,951	-0,0006
879,121	-0,00052
879,29	-0,00049
879,46	-0,00041
879,629	-0,0003
879,799	-0,00004
879,968	0,00028
880,138	0,00054
880,307	0,00035
880,476	0,00079
880,646	0,00072
880,815	0,00077
880,985	0,00051
881,154	0,00054
881,323	0,00042
881,493	0,00036
881,662	-0,00015
881,831	-0,0002
882	-0,00053
882,17	-0,00025
882,339	-0,00073
882,508	-0,00058
882,677	-0,00037
882,846	0,00005
883,016	-0,00002
883,185	0,00011
883,354	0,00009
883,523	0,00031
883,692	0,00029
883,861	0,00047
884,03	-0,00003
884,199	0,00036
884,368	0,00067
884,537	0,00047
884,706	0,00021
884,875	0,00046
885,044	0,00065
885,213	0,00102
885,382	0,00106
885,55	0,00092
885,719	0,00076
885,888	0,00121
886,057	0,00084
886,226	0,00072
886,395	0,00065
886,563	0,00086
886,732	0,00063
886,901	0,00027
887,069	-0,00007
887,238	0,00013
887,407	0,00016
887,575	0,0002
887,744	0,00018
887,913	0,00026
888,081	0,00027
888,25	0,00058
888,418	0,00013
888,587	0,00002
888,755	-0,00009
888,924	-0,00005
889,092	-0,00026
889,261	-0,0005
889,429	-0,00072
889,598	-0,0005
889,766	-0,00017
889,935	0,00004
890,103	-0,00039
890,271	-0,00027
890,44	-0,00023
890,608	-0,00015
890,776	-0,00025
890,944	-0,00014
891,113	0,00017
891,281	0,00037
891,449	0,00003
891,617	-0,00025
891,786	-0,00074
891,954	-0,00059
892,122	-0,00037
892,29	-0,00017
892,458	-0,00037
892,626	-0,00008
892,794	-0,00009
892,962	-0,00015
893,13	-0,00025
893,298	-0,00003
893,466	0,0001
