Data from Chemiepractica_Absorbance__10__11-33-53-105.txt Node

Date: Mon Dec 09 11:33:53 CET 2024
User: r0948668
Spectrometer: USB4F07138
Trigger mode: 4
Integration Time (sec): 6,000000E-3
Scans to average: 20
Electric dark correction enabled: true
Nonlinearity correction enabled: false
Boxcar width: 5
XAxis mode: Wavelengths
Number of Pixels in Spectrum: 3648
>>>>>Begin Spectral Data<<<<<
176,779	-0,42857
176,999	-0,72237
177,218	-0
177,438	-1,02357
177,658	-0,60829
177,878	-0,23575
178,097	-0,19711
178,317	-0,37215
178,537	-0,37563
178,757	-0,22247
178,976	0,07886
179,196	-0,42308
179,416	-0
179,635	0,13911
179,855	0,17504
180,075	0,17913
180,294	0,10339
180,514	0,07111
180,734	0,09252
180,953	0,08903
181,173	0,06179
181,392	0,02394
181,612	0,02286
181,832	0,03587
182,051	0,01614
182,271	-0,00853
182,49	-0,01341
182,71	-0,00863
182,929	0,01313
183,149	0,0086
183,368	0,02212
183,588	0,01272
183,807	0,02464
184,027	0,03735
184,246	0,03381
184,466	0,0364
184,685	0,05209
184,905	0,05178
185,124	0,0452
185,344	0,03485
185,563	0,04164
185,782	0,04507
186,002	0,05263
186,221	0,0454
186,44	0,03571
186,66	0,03921
186,879	0,07463
187,099	0,06349
187,318	0,06535
187,537	0,05824
187,756	0,05393
187,976	0,02738
188,195	0,01711
188,414	0,02085
188,634	0,03683
188,853	0,04465
189,072	0,04268
189,291	0,0116
189,511	0,01924
189,73	0,03827
189,949	0,04857
190,168	0,05462
190,387	0,07698
190,607	0,07998
190,826	0,07635
191,045	0,05921
191,264	0,05419
191,483	0,03933
191,702	0,04262
191,921	0,03931
192,141	0,02639
192,36	0,02004
192,579	0,02918
192,798	0,02622
193,017	0,00512
193,236	0,01123
193,455	0,02011
193,674	0,02236
193,893	0,03683
194,112	0,03482
194,331	0,03379
194,55	0,02797
194,769	0,02824
194,988	0,01004
195,207	0,01743
195,426	0,0315
195,645	0,02602
195,864	0,01499
196,083	0,00678
196,302	0,00419
196,521	0,01343
196,739	0,01413
196,958	0,01385
197,177	0,01624
197,396	0,02796
197,615	0,01334
197,834	0,00748
198,053	0,00063
198,271	0,00264
198,49	0,01457
198,709	0,01334
198,928	0,01982
199,147	0,02814
199,365	0,03769
199,584	0,0357
199,803	0,0249
200,022	0,02848
200,24	0,01969
200,459	0,03341
200,678	0,03694
200,897	0,02713
201,115	0,02739
201,334	0,02744
201,553	0,01119
201,771	0,00632
201,99	0,00204
202,209	0,01832
202,427	0,01959
202,646	0,04179
202,864	0,03313
203,083	0,02612
203,302	0,03947
203,52	0,05292
203,739	0,03646
203,957	0,05278
204,176	0,04848
204,394	0,05396
204,613	0,04563
204,831	0,03824
205,05	0,0305
205,268	0,04001
205,487	0,04611
205,705	0,03671
205,924	0,0378
206,142	0,04103
206,361	0,03547
206,579	0,03621
206,798	0,03635
207,016	0,03757
207,234	0,03585
207,453	0,02683
207,671	0,03733
207,89	0,04849
208,108	0,05278
208,326	0,03588
208,545	0,03811
208,763	0,03936
208,981	0,03123
209,2	0,01653
209,418	0,02036
209,636	0,00978
209,855	0,02169
210,073	0,00835
210,291	-0,00825
210,509	-0,01792
210,728	-0,0164
210,946	-0,00983
211,164	-0,0032
211,382	0,00373
211,6	0,02899
211,819	0,01966
212,037	0,043
212,255	0,03454
212,473	0,03566
212,691	0,03188
212,909	0,03625
213,128	0,02928
213,346	0,03549
213,564	0,03622
213,782	0,03774
214	0,02774
214,218	0,03155
214,436	0,02962
214,654	0,03256
214,872	0,02143
215,09	0,01811
215,308	0,02452
215,526	0,03866
215,744	0,02567
215,962	0,0272
216,18	0,01112
216,398	0,01635
216,616	0,00448
216,834	-0,00488
217,052	-0,00163
217,27	0,00021
217,488	0,01283
217,706	0,02167
217,924	0,01602
218,142	0,02613
218,36	0,01904
218,578	0,0349
218,795	0,02473
219,013	0,04199
219,231	0,04752
219,449	0,04032
219,667	0,04458
219,885	0,05062
220,102	0,04571
220,32	0,04803
220,538	0,05087
220,756	0,05049
220,973	0,05375
221,191	0,05369
221,409	0,04507
221,627	0,04128
221,844	0,05462
222,062	0,04927
222,28	0,03789
222,497	0,03013
222,715	0,03217
222,933	0,01477
223,15	0,00408
223,368	0,00132
223,586	0,00803
223,803	0,01405
224,021	0,02738
224,239	0,02002
224,456	0,02388
224,674	0,03003
224,891	0,03268
225,109	0,02345
225,326	0,01899
225,544	0,0286
225,762	0,02472
225,979	0,02272
226,197	0,01984
226,414	0,01502
226,632	0,01042
226,849	0,00834
227,066	0,00474
227,284	0,0106
227,501	0,01618
227,719	0,03914
227,936	0,04501
228,154	0,05043
228,371	0,05558
228,588	0,05729
228,806	0,05064
229,023	0,06974
229,241	0,0767
229,458	0,08491
229,675	0,0886
229,893	0,0843
230,11	0,08435
230,327	0,07755
230,545	0,06853
230,762	0,06567
230,979	0,07094
231,196	0,0757
231,414	0,05897
231,631	0,05475
231,848	0,04363
232,065	0,03199
232,283	0,03478
232,5	0,02936
232,717	0,02286
232,934	0,02031
233,151	0,0187
233,368	0,00485
233,586	-0,00103
233,803	-0,00025
234,02	0,01525
234,237	0,01423
234,454	0,01015
234,671	0,02646
234,888	0,02028
235,105	0,03564
235,322	0,0534
235,54	0,05306
235,757	0,07742
235,974	0,0817
236,191	0,0909
236,408	0,07898
236,625	0,07837
236,842	0,07465
237,059	0,06462
237,276	0,06052
237,493	0,05735
237,71	0,0489
237,926	0,04303
238,143	0,02731
238,36	0,03456
238,577	0,02221
238,794	0,02012
239,011	0,02288
239,228	0,03146
239,445	0,02579
239,662	0,03106
239,878	0,03188
240,095	0,03236
240,312	0,04308
240,529	0,03623
240,746	0,02743
240,963	0,02496
241,179	0,02465
241,396	0,0402
241,613	0,02462
241,83	0,02375
242,046	0,02191
242,263	0,01917
242,48	0,01776
242,697	0,01436
242,913	0,02055
243,13	0,01669
243,347	0,03134
243,563	0,04058
243,78	0,04747
243,997	0,05872
244,213	0,06903
244,43	0,08274
244,646	0,08852
244,863	0,09436
245,08	0,09319
245,296	0,0964
245,513	0,09043
245,729	0,0857
245,946	0,07925
246,162	0,05906
246,379	0,06971
246,595	0,0601
246,812	0,05106
247,028	0,05042
247,245	0,0528
247,461	0,04761
247,678	0,03436
247,894	0,04971
248,111	0,04819
248,327	0,04686
248,544	0,04934
248,76	0,04599
248,976	0,05451
249,193	0,0514
249,409	0,03832
249,626	0,03079
249,842	0,04109
250,058	0,05002
250,275	0,04034
250,491	0,03578
250,707	0,03958
250,924	0,04108
251,14	0,03051
251,356	0,03143
251,572	0,02821
251,789	0,04603
252,005	0,04701
252,221	0,04331
252,437	0,04715
252,654	0,05493
252,87	0,04912
253,086	0,04246
253,302	0,04027
253,518	0,04171
253,735	0,03887
253,951	0,04195
254,167	0,03201
254,383	0,02386
254,599	0,01944
254,815	0,02359
255,031	0,01467
255,247	0,01591
255,463	0,01185
255,68	0,01776
255,896	0,01476
256,112	0,00777
256,328	0,01097
256,544	0,01335
256,76	0,02448
256,976	0,02553
257,192	0,02405
257,408	0,03714
257,624	0,03711
257,84	0,04791
258,056	0,04595
258,272	0,06039
258,487	0,05441
258,703	0,0521
258,919	0,04896
259,135	0,048
259,351	0,04981
259,567	0,04255
259,783	0,03591
259,999	0,04
260,215	0,03464
260,43	0,02876
260,646	0,03432
260,862	0,04983
261,078	0,04328
261,294	0,04398
261,509	0,05094
261,725	0,05275
261,941	0,05195
262,157	0,04553
262,372	0,04519
262,588	0,0392
262,804	0,04815
263,019	0,03416
263,235	0,02669
263,451	0,032
263,667	0,03438
263,882	0,03472
264,098	0,03538
264,313	0,04406
264,529	0,0476
264,745	0,04501
264,96	0,04264
265,176	0,04682
265,391	0,04323
265,607	0,04942
265,823	0,03966
266,038	0,03423
266,254	0,02654
266,469	0,02911
266,685	0,01871
266,9	0,01708
267,116	0,03062
267,331	0,04352
267,547	0,03064
267,762	0,02397
267,978	0,02334
268,193	0,03123
268,408	0,04264
268,624	0,04219
268,839	0,03733
269,055	0,02478
269,27	0,02751
269,485	0,01821
269,701	0,01211
269,916	0,00595
270,132	0,02168
270,347	0,02108
270,562	0,02298
270,777	0,01454
270,993	0,01953
271,208	0,01487
271,423	0,04374
271,639	0,04466
271,854	0,03868
272,069	0,03893
272,284	0,04996
272,5	0,04561
272,715	0,0433
272,93	0,03933
273,145	0,03424
273,36	0,02933
273,576	0,03962
273,791	0,01609
274,006	0,01576
274,221	0,01943
274,436	0,01905
274,651	0,02248
274,866	0,02633
275,081	0,02894
275,296	0,02845
275,512	0,02974
275,727	0,03984
275,942	0,03547
276,157	0,04744
276,372	0,05678
276,587	0,05698
276,802	0,0555
277,017	0,05388
277,232	0,05361
277,447	0,04996
277,662	0,0399
277,877	0,03754
278,092	0,02483
278,306	0,0278
278,521	0,02852
278,736	0,02164
278,951	0,02538
279,166	0,01325
279,381	0,00409
279,596	-0,00142
279,811	-0,00206
280,025	-0,00034
280,24	0,0031
280,455	0,01195
280,67	0,00382
280,885	0,00601
281,099	0,00058
281,314	-0,00375
281,529	0,01448
281,744	0,02229
281,959	0,03275
282,173	0,0379
282,388	0,05121
282,603	0,04535
282,817	0,03581
283,032	0,04598
283,247	0,03907
283,461	0,0441
283,676	0,03583
283,891	0,03286
284,105	0,03785
284,32	0,03485
284,535	0,03448
284,749	0,02911
284,964	0,04553
285,178	0,05041
285,393	0,05196
285,607	0,05126
285,822	0,05577
286,036	0,07544
286,251	0,06966
286,465	0,06893
286,68	0,06254
286,894	0,0536
287,109	0,0595
287,323	0,0443
287,538	0,04424
287,752	0,03423
287,967	0,03589
288,181	0,02273
288,396	0,02166
288,61	0,03382
288,824	0,03676
289,039	0,04398
289,253	0,05125
289,467	0,058
289,682	0,0592
289,896	0,05943
290,11	0,06326
290,325	0,06741
290,539	0,06457
290,753	0,0531
290,968	0,0432
291,182	0,03112
291,396	0,02328
291,61	0,02667
291,825	0,01476
292,039	0,01748
292,253	0,01626
292,467	0,00986
292,681	-0,00294
292,896	0,00517
293,11	0,00233
293,324	0,01182
293,538	0,02239
293,752	0,03189
293,966	0,0253
294,18	0,02629
294,394	0,0246
294,608	0,0304
294,823	0,03594
295,037	0,05413
295,251	0,05374
295,465	0,06291
295,679	0,05317
295,893	0,05507
296,107	0,04617
296,321	0,0615
296,535	0,06542
296,749	0,07282
296,963	0,05857
297,177	0,05588
297,391	0,04835
297,604	0,0408
297,818	0,03252
298,032	0,02477
298,246	0,00521
298,46	0,01242
298,674	0,00253
298,888	-0,00073
299,102	0,00378
299,315	0,01908
299,529	0,02594
299,743	0,03258
299,957	0,03621
300,171	0,03622
300,385	0,05155
300,598	0,05394
300,812	0,05307
301,026	0,04554
301,24	0,04761
301,453	0,03762
301,667	0,033
301,881	0,03177
302,094	0,02238
302,308	0,02892
302,522	0,03895
302,735	0,03301
302,949	0,04006
303,163	0,02712
303,376	0,02889
303,59	0,03391
303,803	0,03687
304,017	0,03819
304,231	0,03984
304,444	0,04422
304,658	0,0459
304,871	0,0407
305,085	0,04669
305,298	0,04472
305,512	0,05058
305,725	0,05399
305,939	0,05377
306,152	0,04192
306,366	0,02412
306,579	0,02682
306,793	0,03023
307,006	0,03374
307,22	0,03113
307,433	0,02123
307,646	0,0169
307,86	0,02324
308,073	0,02537
308,286	0,01252
308,5	0,0192
308,713	0,02575
308,926	0,03014
309,14	0,02221
309,353	0,01294
309,566	0,01322
309,78	0,01503
309,993	0,02324
310,206	0,02405
310,419	0,02839
310,633	0,03404
310,846	0,04605
311,059	0,051
311,272	0,03485
311,486	0,0403
311,699	0,03654
311,912	0,03813
312,125	0,04015
312,338	0,04179
312,551	0,0341
312,764	0,02846
312,978	0,04068
313,191	0,03211
313,404	0,01861
313,617	0,02023
313,83	0,02602
314,043	0,03662
314,256	0,03383
314,469	0,03035
314,682	0,01952
314,895	0,02022
315,108	0,0246
315,321	0,01387
315,534	0,0194
315,747	0,03914
315,96	0,0424
316,173	0,03305
316,386	0,02588
316,599	0,03529
316,812	0,04023
317,025	0,05213
317,237	0,05661
317,45	0,04793
317,663	0,05452
317,876	0,05369
318,089	0,05328
318,302	0,04375
318,515	0,04778
318,727	0,04037
318,94	0,0366
319,153	0,02647
319,366	0,02009
319,578	0,01705
319,791	0,03263
320,004	0,02431
320,217	0,02484
320,429	0,02381
320,642	0,03291
320,855	0,03045
321,067	0,03069
321,28	0,0261
321,493	0,03479
321,705	0,03279
321,918	0,03409
322,131	0,02628
322,343	0,02991
322,556	0,0336
322,768	0,02164
322,981	0,01479
323,194	0,00746
323,406	0,00668
323,619	0,00518
323,831	0,00404
324,044	0,01192
324,256	0,00948
324,469	0,00165
324,681	0,00271
324,894	-0,00451
325,106	0,00093
325,319	0,00312
325,531	0,01634
325,743	0,01463
325,956	0,01777
326,168	0,02029
326,381	0,01893
326,593	0,01545
326,805	0,0241
327,018	0,02283
327,23	0,01193
327,442	0,01601
327,655	0,01093
327,867	-0,00054
328,079	0,00713
328,292	0,0068
328,504	0,00332
328,716	-0,00171
328,928	0,01431
329,141	0,01667
329,353	0,0118
329,565	0,02409
329,777	0,02443
329,99	0,0282
330,202	0,03466
330,414	0,02395
330,626	0,02997
330,838	0,03523
331,05	0,03662
331,263	0,02367
331,475	0,02216
331,687	0,01972
331,899	0,02538
332,111	0,02715
332,323	0,03529
332,535	0,03889
332,747	0,04594
332,959	0,0406
333,171	0,04132
333,383	0,03014
333,595	0,03039
333,807	0,02748
334,019	0,0304
334,231	0,02359
334,443	0,02159
334,655	0,01441
334,867	0,00544
335,079	0,00711
335,291	-0,00173
335,503	0,00143
335,714	0,01438
335,926	0,02197
336,138	0,01546
336,35	0,01804
336,562	0,02333
336,774	0,02062
336,986	0,0221
337,197	0,02661
337,409	0,02355
337,621	0,02784
337,833	0,02363
338,044	0,02526
338,256	0,01956
338,468	0,02606
338,68	0,02743
338,891	0,02102
339,103	0,01354
339,315	0,00631
339,526	0,00424
339,738	0,00309
339,95	0,00331
340,161	0,01242
340,373	0,00582
340,585	0,00308
340,796	0,00108
341,008	0,00065
341,219	0,00378
341,431	0,00664
341,642	0,01235
341,854	0,01123
342,065	0,02308
342,277	0,02037
342,489	0,00434
342,7	0,01202
342,912	0,01507
343,123	0,01656
343,334	0,02079
343,546	0,01237
343,757	0,01876
343,969	0,01327
344,18	0,00894
344,392	-0,00281
344,603	0,00766
344,814	0,01835
345,026	0,01883
345,237	0,01915
345,448	0,0152
345,66	0,00991
345,871	0,01403
346,082	0,01331
346,294	0,02157
346,505	0,02792
346,716	0,03665
346,927	0,04026
347,139	0,03594
347,35	0,02634
347,561	0,02473
347,772	0,02607
347,984	0,0332
348,195	0,03355
348,406	0,03159
348,617	0,03605
348,828	0,03941
349,039	0,03402
349,251	0,02848
349,462	0,02858
349,673	0,02583
349,884	0,02365
350,095	0,02912
350,306	0,02263
350,517	0,02759
350,728	0,0275
350,939	0,02507
351,15	0,02131
351,361	0,02401
351,572	0,0216
351,783	0,02253
351,994	0,02756
352,205	0,03333
352,416	0,02559
352,627	0,02515
352,838	0,02015
353,049	0,02657
353,26	0,02391
353,471	0,02048
353,682	0,01634
353,893	0,02346
354,103	0,01775
354,314	0,01325
354,525	0,01261
354,736	0,01633
354,947	0,01656
355,157	0,01946
355,368	0,01911
355,579	0,01147
355,79	0,01526
356,001	0,01803
356,211	0,02019
356,422	0,01438
356,633	0,02239
356,843	0,01931
357,054	0,02223
357,265	0,02717
357,476	0,02583
357,686	0,01781
357,897	0,02451
358,107	0,01834
358,318	0,01578
358,529	0,0131
358,739	0,02412
358,95	0,02478
359,16	0,02538
359,371	0,01955
359,582	0,01277
359,792	0,0145
360,003	0,01411
360,213	0,01008
360,424	0,01289
360,634	0,02571
360,845	0,02172
361,055	0,02606
361,266	0,01868
361,476	0,02308
361,686	0,02797
361,897	0,03064
362,107	0,03185
362,318	0,03717
362,528	0,0442
362,738	0,0444
362,949	0,03223
363,159	0,03128
363,369	0,02533
363,58	0,02701
363,79	0,0235
364	0,02339
364,211	0,01867
364,421	0,01316
364,631	0,01048
364,842	0,00605
365,052	0,00574
365,262	0,00611
365,472	0,00829
365,682	0,00745
365,893	0,0104
366,103	0,01589
366,313	0,01392
366,523	0,02098
366,733	0,02497
366,943	0,0259
367,154	0,02713
367,364	0,03672
367,574	0,04017
367,784	0,03705
367,994	0,04209
368,204	0,047
368,414	0,04103
368,624	0,04513
368,834	0,04578
369,044	0,03908
369,254	0,03929
369,464	0,0395
369,674	0,03476
369,884	0,0283
370,094	0,02789
370,304	0,0204
370,514	0,01784
370,724	0,0199
370,934	0,01576
371,144	0,00721
371,353	0,01453
371,563	0,01666
371,773	0,01826
371,983	0,01881
372,193	0,02063
372,403	0,01935
372,612	0,01735
372,822	0,01671
373,032	0,01792
373,242	0,01776
373,452	0,01944
373,661	0,01784
373,871	0,01443
374,081	0,01611
374,29	0,0166
374,5	0,0183
374,71	0,01608
374,92	0,02005
375,129	0,02036
375,339	0,01906
375,549	0,0186
375,758	0,02198
375,968	0,02373
376,177	0,01972
376,387	0,01704
376,597	0,01497
376,806	0,01924
377,016	0,02388
377,225	0,02468
377,435	0,02114
377,644	0,01891
377,854	0,01855
378,063	0,01746
378,273	0,01385
378,482	0,0176
378,692	0,02125
378,901	0,0176
379,111	0,01415
379,32	0,01714
379,529	0,01757
379,739	0,0217
379,948	0,02358
380,158	0,02916
380,367	0,03112
380,576	0,03443
380,786	0,03146
380,995	0,03027
381,204	0,03716
381,414	0,03939
381,623	0,03491
381,832	0,03501
382,041	0,03062
382,251	0,0297
382,46	0,02639
382,669	0,02595
382,878	0,02198
383,088	0,02679
383,297	0,02617
383,506	0,02267
383,715	0,01937
383,924	0,01893
384,133	0,01739
384,342	0,02179
384,552	0,02108
384,761	0,02406
384,97	0,02671
385,179	0,03002
385,388	0,02812
385,597	0,0234
385,806	0,02456
386,015	0,0273
386,224	0,03168
386,433	0,03043
386,642	0,02616
386,851	0,02539
387,06	0,01967
387,269	0,01858
387,478	0,01906
387,687	0,0232
387,896	0,02643
388,105	0,02589
388,314	0,02193
388,523	0,01733
388,731	0,01808
388,94	0,02226
389,149	0,02482
389,358	0,02682
389,567	0,02964
389,776	0,02988
389,984	0,02481
390,193	0,02498
390,402	0,02344
390,611	0,02431
390,819	0,02287
391,028	0,02678
391,237	0,02627
391,446	0,0215
391,654	0,01937
391,863	0,01552
392,072	0,0131
392,28	0,01413
392,489	0,0131
392,698	0,01385
392,906	0,01415
393,115	0,01595
393,324	0,01287
393,532	0,00987
393,741	0,01137
393,949	0,0106
394,158	0,00931
394,366	0,0088
394,575	0,00769
394,783	0,0089
394,992	0,00916
395,2	0,00664
395,409	0,00747
395,617	0,00815
395,826	0,01005
396,034	0,00871
396,243	0,01296
396,451	0,01247
396,66	0,01722
396,868	0,01674
397,076	0,01697
397,285	0,01434
397,493	0,016
397,701	0,0149
397,91	0,01369
398,118	0,01354
398,326	0,01629
398,535	0,01139
398,743	0,01319
398,951	0,00892
399,159	0,01045
399,368	0,01136
399,576	0,01356
399,784	0,01493
399,992	0,01535
400,201	0,01484
400,409	0,01365
400,617	0,01447
400,825	0,01918
401,033	0,01824
401,241	0,01936
401,45	0,02032
401,658	0,01961
401,866	0,02117
402,074	0,02111
402,282	0,02121
402,49	0,02284
402,698	0,02358
402,906	0,0226
403,114	0,01972
403,322	0,01942
403,53	0,02051
403,738	0,01921
403,946	0,0185
404,154	0,01577
404,362	0,01526
404,57	0,01452
404,778	0,013
404,986	0,01395
405,194	0,0137
405,402	0,01551
405,609	0,01512
405,817	0,01107
406,025	0,0122
406,233	0,01323
406,441	0,01644
406,649	0,0152
406,856	0,01663
407,064	0,01752
407,272	0,01709
407,48	0,01746
407,687	0,01855
407,895	0,01962
408,103	0,02083
408,311	0,02126
408,518	0,02045
408,726	0,0188
408,934	0,02005
409,141	0,02039
409,349	0,01791
409,557	0,01953
409,764	0,01863
409,972	0,01716
410,18	0,0165
410,387	0,01838
410,595	0,0167
410,802	0,01506
411,01	0,0141
411,217	0,01332
411,425	0,01205
411,632	0,01246
411,84	0,01022
412,047	0,00949
412,255	0,00883
412,462	0,01009
412,67	0,00919
412,877	0,01011
413,085	0,01091
413,292	0,01193
413,499	0,0132
413,707	0,01279
413,914	0,01503
414,122	0,01548
414,329	0,01692
414,536	0,01836
414,744	0,01669
414,951	0,01756
415,158	0,01769
415,366	0,0169
415,573	0,01666
415,78	0,01593
415,987	0,01646
416,195	0,01631
416,402	0,01358
416,609	0,01379
416,816	0,01287
417,023	0,01494
417,231	0,01536
417,438	0,01506
417,645	0,01527
417,852	0,01383
418,059	0,01425
418,266	0,01353
418,473	0,0116
418,68	0,01462
418,888	0,01436
419,095	0,01455
419,302	0,01431
419,509	0,01271
419,716	0,01409
419,923	0,01526
420,13	0,01554
420,337	0,0156
420,544	0,01591
420,751	0,01699
420,958	0,01597
421,165	0,01591
421,371	0,01391
421,578	0,01206
421,785	0,01209
421,992	0,01081
422,199	0,00954
422,406	0,00955
422,613	0,00923
422,82	0,00993
423,026	0,01012
423,233	0,00984
423,44	0,00756
423,647	0,00805
423,854	0,00864
424,06	0,00918
424,267	0,00818
424,474	0,00885
424,681	0,01004
424,887	0,00894
425,094	0,00856
425,301	0,00954
425,507	0,01003
425,714	0,01215
425,921	0,0123
426,127	0,01063
426,334	0,0107
426,54	0,01247
426,747	0,01368
426,954	0,01246
427,16	0,01269
427,367	0,01321
427,573	0,01272
427,78	0,01213
427,986	0,01152
428,193	0,01221
428,399	0,01378
428,606	0,01264
428,812	0,01301
429,019	0,01161
429,225	0,01248
429,432	0,0139
429,638	0,01333
429,845	0,01254
430,051	0,01276
430,257	0,01185
430,464	0,0125
430,67	0,01207
430,876	0,01304
431,083	0,0125
431,289	0,01398
431,495	0,01467
431,702	0,01356
431,908	0,01247
432,114	0,01148
432,32	0,0115
432,527	0,01193
432,733	0,01051
432,939	0,01094
433,145	0,01113
433,351	0,01054
433,558	0,01052
433,764	0,00945
433,97	0,0094
434,176	0,00998
434,382	0,01299
434,588	0,01325
434,794	0,0132
435,001	0,0144
435,207	0,01368
435,413	0,01323
435,619	0,01303
435,825	0,01237
436,031	0,01267
436,237	0,01294
436,443	0,01388
436,649	0,01263
436,855	0,01225
437,061	0,0138
437,267	0,01367
437,473	0,01422
437,679	0,01468
437,884	0,01385
438,09	0,0127
438,296	0,01149
438,502	0,01118
438,708	0,01074
438,914	0,01025
439,12	0,01118
439,325	0,01049
439,531	0,01077
439,737	0,0106
439,943	0,00969
440,149	0,01046
440,354	0,01061
440,56	0,01128
440,766	0,01058
440,972	0,01127
441,177	0,01186
441,383	0,01102
441,589	0,0111
441,794	0,01113
442	0,01104
442,206	0,01145
442,411	0,01081
442,617	0,01192
442,822	0,01203
443,028	0,0125
443,234	0,01283
443,439	0,01211
443,645	0,01224
443,85	0,01239
444,056	0,01137
444,261	0,01237
444,467	0,01292
444,672	0,01287
444,878	0,01248
445,083	0,01301
445,289	0,0136
445,494	0,01268
445,699	0,01274
445,905	0,01311
446,11	0,01278
446,316	0,01331
446,521	0,01275
446,726	0,01253
446,932	0,01315
447,137	0,01327
447,342	0,01278
447,548	0,01172
447,753	0,01255
447,958	0,01263
448,164	0,01185
448,369	0,01197
448,574	0,0111
448,779	0,01134
448,984	0,01114
449,19	0,01149
449,395	0,01117
449,6	0,01176
449,805	0,01306
450,01	0,01239
450,215	0,01292
450,421	0,01353
450,626	0,01385
450,831	0,01395
451,036	0,01321
451,241	0,01357
451,446	0,01306
451,651	0,01348
451,856	0,01277
452,061	0,01327
452,266	0,01365
452,471	0,01304
452,676	0,01331
452,881	0,01333
453,086	0,01469
453,291	0,01573
453,496	0,01489
453,701	0,01513
453,906	0,01532
454,111	0,01537
454,316	0,01509
454,52	0,01483
454,725	0,01429
454,93	0,01419
455,135	0,01458
455,34	0,01344
455,545	0,01341
455,749	0,01449
455,954	0,01425
456,159	0,01405
456,364	0,01558
456,568	0,01506
456,773	0,01607
456,978	0,01724
457,182	0,01822
457,387	0,01809
457,592	0,01906
457,796	0,0185
458,001	0,0186
458,206	0,01895
458,41	0,01892
458,615	0,01777
458,82	0,01848
459,024	0,01831
459,229	0,01836
459,433	0,0176
459,638	0,01718
459,842	0,01763
460,047	0,01772
460,251	0,01744
460,456	0,01745
460,66	0,01777
460,865	0,01828
461,069	0,01815
461,274	0,01854
461,478	0,01829
461,682	0,01855
461,887	0,01909
462,091	0,0188
462,296	0,01938
462,5	0,01982
462,704	0,02072
462,909	0,02013
463,113	0,01963
463,317	0,01991
463,522	0,01999
463,726	0,0212
463,93	0,02083
464,134	0,02102
464,339	0,02097
464,543	0,02069
464,747	0,02065
464,951	0,02076
465,155	0,02159
465,36	0,02279
465,564	0,02249
465,768	0,02201
465,972	0,02177
466,176	0,02202
466,38	0,02219
466,584	0,02287
466,788	0,02307
466,993	0,02312
467,197	0,02312
467,401	0,0233
467,605	0,02272
467,809	0,02318
468,013	0,02325
468,217	0,02297
468,421	0,02321
468,625	0,02293
468,829	0,02258
469,033	0,02262
469,236	0,0232
469,44	0,02248
469,644	0,02218
469,848	0,02229
470,052	0,02297
470,256	0,02249
470,46	0,02256
470,664	0,02314
470,867	0,02346
471,071	0,02369
471,275	0,02445
471,479	0,02426
471,683	0,02465
471,886	0,02506
472,09	0,02523
472,294	0,02462
472,497	0,02567
472,701	0,02598
472,905	0,02569
473,109	0,02619
473,312	0,02624
473,516	0,0264
473,719	0,02661
473,923	0,02711
474,127	0,02691
474,33	0,02659
474,534	0,02696
474,737	0,02725
474,941	0,02726
475,145	0,02733
475,348	0,02723
475,552	0,02729
475,755	0,02726
475,959	0,0279
476,162	0,02842
476,366	0,0294
476,569	0,03018
476,772	0,03059
476,976	0,03044
477,179	0,0308
477,383	0,03094
477,586	0,03099
477,789	0,03115
477,993	0,03126
478,196	0,0308
478,399	0,03065
478,603	0,0304
478,806	0,03057
479,009	0,02996
479,213	0,02987
479,416	0,03002
479,619	0,03085
479,822	0,03112
480,026	0,03189
480,229	0,03193
480,432	0,03249
480,635	0,03248
480,838	0,03304
481,041	0,03291
481,245	0,03379
481,448	0,03408
481,651	0,03442
481,854	0,03438
482,057	0,03431
482,26	0,03433
482,463	0,03459
482,666	0,03481
482,869	0,03522
483,072	0,03519
483,275	0,03551
483,478	0,03547
483,681	0,0361
483,884	0,03614
484,087	0,03603
484,29	0,03679
484,493	0,03696
484,696	0,0374
484,899	0,03765
485,102	0,03792
485,305	0,03808
485,508	0,03885
485,71	0,03933
485,913	0,03941
486,116	0,03963
486,319	0,04017
486,522	0,04034
486,725	0,04061
486,927	0,04116
487,13	0,04137
487,333	0,04187
487,536	0,04243
487,738	0,04257
487,941	0,04257
488,144	0,04295
488,346	0,04315
488,549	0,04328
488,752	0,04348
488,954	0,04374
489,157	0,0436
489,359	0,04383
489,562	0,04386
489,765	0,0439
489,967	0,04397
490,17	0,04445
490,372	0,04469
490,575	0,04497
490,777	0,04539
490,98	0,04541
491,182	0,04538
491,385	0,04595
491,587	0,04613
491,79	0,04652
491,992	0,04695
492,195	0,04733
492,397	0,04742
492,599	0,04765
492,802	0,048
493,004	0,04858
493,207	0,04933
493,409	0,04991
493,611	0,04996
493,814	0,05045
494,016	0,05071
494,218	0,05077
494,42	0,05122
494,623	0,05163
494,825	0,05205
495,027	0,05222
495,229	0,05215
495,432	0,05213
495,634	0,05242
495,836	0,05277
496,038	0,053
496,24	0,05326
496,442	0,05353
496,645	0,05374
496,847	0,05408
497,049	0,05414
497,251	0,05462
497,453	0,0551
497,655	0,05567
497,857	0,05618
498,059	0,05665
498,261	0,05705
498,463	0,05753
498,665	0,05821
498,867	0,05851
499,069	0,0589
499,271	0,0594
499,473	0,06001
499,675	0,06048
499,877	0,06064
500,079	0,06095
500,281	0,0611
500,482	0,06142
500,684	0,062
500,886	0,06235
501,088	0,06265
501,29	0,06325
501,492	0,06363
501,693	0,06403
501,895	0,06447
502,097	0,06487
502,299	0,06498
502,5	0,06548
502,702	0,06604
502,904	0,06642
503,106	0,06675
503,307	0,06723
503,509	0,06744
503,711	0,0679
503,912	0,06844
504,114	0,06885
504,315	0,06908
504,517	0,0699
504,719	0,07029
504,92	0,07048
505,122	0,07062
505,323	0,07097
505,525	0,07134
505,726	0,07196
505,928	0,07247
506,129	0,07265
506,331	0,07297
506,532	0,07384
506,734	0,07412
506,935	0,0747
507,137	0,07525
507,338	0,07567
507,539	0,076
507,741	0,07647
507,942	0,07671
508,143	0,07705
508,345	0,0775
508,546	0,0779
508,747	0,07831
508,949	0,07883
509,15	0,07899
509,351	0,07939
509,553	0,07973
509,754	0,08033
509,955	0,08062
510,156	0,08113
510,357	0,08149
510,559	0,08204
510,76	0,08238
510,961	0,08294
511,162	0,08336
511,363	0,08399
511,564	0,08444
511,766	0,08514
511,967	0,08584
512,168	0,08659
512,369	0,08713
512,57	0,08786
512,771	0,08842
512,972	0,08902
513,173	0,08956
513,374	0,09002
513,575	0,09051
513,776	0,09113
513,977	0,09145
514,178	0,09196
514,379	0,09242
514,58	0,09303
514,781	0,09368
514,981	0,09415
515,182	0,09443
515,383	0,09488
515,584	0,09548
515,785	0,09632
515,986	0,09687
516,187	0,09768
516,387	0,09797
516,588	0,0987
516,789	0,09933
516,99	0,09967
517,19	0,09989
517,391	0,10063
517,592	0,10108
517,793	0,10158
517,993	0,10205
518,194	0,10249
518,395	0,10314
518,595	0,10367
518,796	0,10403
518,996	0,1045
519,197	0,1051
519,398	0,10582
519,598	0,1065
519,799	0,10704
519,999	0,10766
520,2	0,10821
520,4	0,10872
520,601	0,10916
520,801	0,10991
521,002	0,11038
521,202	0,11066
521,403	0,1111
521,603	0,1117
521,804	0,11206
522,004	0,11275
522,204	0,11317
522,405	0,11358
522,605	0,11424
522,806	0,11473
523,006	0,11521
523,206	0,11616
523,407	0,11712
523,607	0,11766
523,807	0,11827
524,007	0,1188
524,208	0,11914
524,408	0,11975
524,608	0,12034
524,808	0,12095
525,009	0,12163
525,209	0,12196
525,409	0,12224
525,609	0,12241
525,809	0,12318
526,009	0,12378
526,209	0,12449
526,41	0,12512
526,61	0,12599
526,81	0,12656
527,01	0,12719
527,21	0,12763
527,41	0,12836
527,61	0,12883
527,81	0,12935
528,01	0,12977
528,21	0,13038
528,41	0,13075
528,61	0,13107
528,81	0,1313
529,01	0,13183
529,21	0,13222
529,41	0,13257
529,609	0,13299
529,809	0,13337
530,009	0,13409
530,209	0,13459
530,409	0,13495
530,609	0,13553
530,808	0,13616
531,008	0,1366
531,208	0,13692
531,408	0,13759
531,608	0,13816
531,807	0,13864
532,007	0,13934
532,207	0,13981
532,406	0,1403
532,606	0,14092
532,806	0,14159
533,005	0,14214
533,205	0,14264
533,405	0,14304
533,604	0,14347
533,804	0,14409
534,003	0,14461
534,203	0,14494
534,403	0,14521
534,602	0,14562
534,802	0,14577
535,001	0,14619
535,201	0,14645
535,4	0,14688
535,6	0,14737
535,799	0,14761
535,998	0,14778
536,198	0,1483
536,397	0,14889
536,597	0,14932
536,796	0,14979
536,995	0,15038
537,195	0,15062
537,394	0,15119
537,594	0,15163
537,793	0,15205
537,992	0,15248
538,191	0,15309
538,391	0,15344
538,59	0,15385
538,789	0,15427
538,988	0,15431
539,188	0,15463
539,387	0,1551
539,586	0,15547
539,785	0,15579
539,984	0,15607
540,184	0,15632
540,383	0,15655
540,582	0,1567
540,781	0,1571
540,98	0,15749
541,179	0,15799
541,378	0,15835
541,577	0,15873
541,776	0,15904
541,975	0,15948
542,174	0,15992
542,373	0,16023
542,572	0,16041
542,771	0,16082
542,97	0,1609
543,169	0,16111
543,368	0,16133
543,567	0,16163
543,766	0,16174
543,965	0,16209
544,164	0,16225
544,362	0,16257
544,561	0,16282
544,76	0,16316
544,959	0,1633
545,158	0,16379
545,356	0,16417
545,555	0,16461
545,754	0,16483
545,953	0,16498
546,151	0,16525
546,35	0,16552
546,549	0,16573
546,748	0,16601
546,946	0,16611
547,145	0,16644
547,344	0,16655
547,542	0,16668
547,741	0,16683
547,939	0,16692
548,138	0,16725
548,337	0,16732
548,535	0,16744
548,734	0,16746
548,932	0,1676
549,131	0,16787
549,329	0,1681
549,528	0,16819
549,726	0,16835
549,925	0,16857
550,123	0,16879
550,322	0,16899
550,52	0,16915
550,718	0,16949
550,917	0,16974
551,115	0,16974
551,313	0,17002
551,512	0,17015
551,71	0,17045
551,908	0,17058
552,107	0,17076
552,305	0,17105
552,503	0,17123
552,702	0,17134
552,9	0,1713
553,098	0,17164
553,296	0,17205
553,495	0,17218
553,693	0,17238
553,891	0,17251
554,089	0,17274
554,287	0,17283
554,485	0,17299
554,683	0,17303
554,882	0,1732
555,08	0,17359
555,278	0,1737
555,476	0,17398
555,674	0,17403
555,872	0,17414
556,07	0,17426
556,268	0,17457
556,466	0,17467
556,664	0,1748
556,862	0,17508
557,06	0,17535
557,258	0,17546
557,456	0,17564
557,654	0,17572
557,851	0,17601
558,049	0,17625
558,247	0,17648
558,445	0,17677
558,643	0,17704
558,841	0,17723
559,039	0,17756
559,236	0,1779
559,434	0,17808
559,632	0,17831
559,83	0,17859
560,027	0,17876
560,225	0,17911
560,423	0,17932
560,62	0,17954
560,818	0,1797
561,016	0,17999
561,213	0,18013
561,411	0,18037
561,609	0,1806
561,806	0,18079
562,004	0,18098
562,202	0,18148
562,399	0,18166
562,597	0,18196
562,794	0,18211
562,992	0,18253
563,189	0,18279
563,387	0,18317
563,584	0,18343
563,782	0,18371
563,979	0,184
564,177	0,18431
564,374	0,18447
564,571	0,18492
564,769	0,18521
564,966	0,18547
565,164	0,18586
565,361	0,18606
565,558	0,18634
565,756	0,18654
565,953	0,18691
566,15	0,18741
566,347	0,18786
566,545	0,18814
566,742	0,1884
566,939	0,18889
567,136	0,18916
567,334	0,18942
567,531	0,18998
567,728	0,19024
567,925	0,1907
568,122	0,19107
568,319	0,19151
568,517	0,19195
568,714	0,19254
568,911	0,19309
569,108	0,19341
569,305	0,19401
569,502	0,1945
569,699	0,19491
569,896	0,1956
570,093	0,19612
570,29	0,19671
570,487	0,19705
570,684	0,19748
570,881	0,19795
571,078	0,19824
571,275	0,19876
571,472	0,19927
571,669	0,19963
571,866	0,2002
572,062	0,20041
572,259	0,20083
572,456	0,20129
572,653	0,20181
572,85	0,20226
573,047	0,20264
573,243	0,20322
573,44	0,20364
573,637	0,20415
573,834	0,20478
574,03	0,20528
574,227	0,20598
574,424	0,20654
574,62	0,20694
574,817	0,20744
575,014	0,20811
575,21	0,20866
575,407	0,20913
575,604	0,20982
575,8	0,21034
575,997	0,21102
576,193	0,21158
576,39	0,21219
576,586	0,21272
576,783	0,21344
576,979	0,21397
577,176	0,2143
577,372	0,21485
577,569	0,21529
577,765	0,21575
577,962	0,21628
578,158	0,21681
578,355	0,21734
578,551	0,21782
578,747	0,2183
578,944	0,21873
579,14	0,21931
579,336	0,21991
579,533	0,22051
579,729	0,22113
579,925	0,22151
580,122	0,22192
580,318	0,22243
580,514	0,22291
580,71	0,22337
580,906	0,22404
581,103	0,2247
581,299	0,22525
581,495	0,22574
581,691	0,22618
581,887	0,22669
582,084	0,22734
582,28	0,22799
582,476	0,22844
582,672	0,22882
582,868	0,22934
583,064	0,22965
583,26	0,23006
583,456	0,23042
583,652	0,23092
583,848	0,2314
584,044	0,23185
584,24	0,23213
584,436	0,2324
584,632	0,23267
584,828	0,23302
585,024	0,23331
585,22	0,23377
585,416	0,23396
585,611	0,2342
585,807	0,23445
586,003	0,23472
586,199	0,23496
586,395	0,23524
586,591	0,23554
586,786	0,23582
586,982	0,23602
587,178	0,23619
587,374	0,23623
587,569	0,23633
587,765	0,23658
587,961	0,23677
588,156	0,2369
588,352	0,23697
588,548	0,23716
588,743	0,2372
588,939	0,23721
589,135	0,23725
589,33	0,23722
589,526	0,23717
589,721	0,23737
589,917	0,23735
590,112	0,23724
590,308	0,23715
590,503	0,23723
590,699	0,23687
590,894	0,23679
591,09	0,23672
591,285	0,23661
591,481	0,23654
591,676	0,23658
591,872	0,23629
592,067	0,23596
592,262	0,23571
592,458	0,2355
592,653	0,23518
592,848	0,23517
593,044	0,23478
593,239	0,23445
593,434	0,23413
593,629	0,23383
593,825	0,2332
594,02	0,23277
594,215	0,23237
594,41	0,23191
594,606	0,23131
594,801	0,23078
594,996	0,23026
595,191	0,22989
595,386	0,22929
595,581	0,22872
595,777	0,22822
595,972	0,2279
596,167	0,22724
596,362	0,22668
596,557	0,22629
596,752	0,22579
596,947	0,22514
597,142	0,22449
597,337	0,22368
597,532	0,22295
597,727	0,22228
597,922	0,2214
598,117	0,2205
598,312	0,21984
598,507	0,21883
598,701	0,21772
598,896	0,21672
599,091	0,21586
599,286	0,215
599,481	0,21396
599,676	0,21309
599,87	0,212
600,065	0,21107
600,26	0,21034
600,455	0,20938
600,65	0,20861
600,844	0,20753
601,039	0,20655
601,234	0,20551
601,428	0,20439
601,623	0,20341
601,818	0,20244
602,012	0,20162
602,207	0,20051
602,402	0,19914
602,596	0,19781
602,791	0,19664
602,985	0,19576
603,18	0,19459
603,374	0,19344
603,569	0,1923
603,763	0,1912
603,958	0,18997
604,152	0,18872
604,347	0,18754
604,541	0,18635
604,736	0,18527
604,93	0,18399
605,125	0,18241
605,319	0,18125
605,513	0,17999
605,708	0,17868
605,902	0,17748
606,096	0,1761
606,291	0,17475
606,485	0,17343
606,679	0,17224
606,874	0,17095
607,068	0,1698
607,262	0,16878
607,456	0,16745
607,65	0,16606
607,845	0,16487
608,039	0,16363
608,233	0,16217
608,427	0,16088
608,621	0,15966
608,815	0,15823
609,01	0,15705
609,204	0,1557
609,398	0,15441
609,592	0,15316
609,786	0,15206
609,98	0,15085
610,174	0,14945
610,368	0,14843
610,562	0,14711
610,756	0,14572
610,95	0,14454
611,144	0,14315
611,338	0,14187
611,532	0,14048
611,726	0,13922
611,919	0,13801
612,113	0,13664
612,307	0,13533
612,501	0,13391
612,695	0,13267
612,889	0,13155
613,082	0,13034
613,276	0,12915
613,47	0,12791
613,664	0,12677
613,857	0,1254
614,051	0,12407
614,245	0,12285
614,439	0,12157
614,632	0,12046
614,826	0,11917
615,02	0,11775
615,213	0,11658
615,407	0,11538
615,6	0,1142
615,794	0,11302
615,988	0,1119
616,181	0,11067
616,375	0,10944
616,568	0,10837
616,762	0,1072
616,955	0,10622
617,149	0,10516
617,342	0,10382
617,536	0,10268
617,729	0,10163
617,923	0,10052
618,116	0,0994
618,309	0,09821
618,503	0,09723
618,696	0,09617
618,889	0,09511
619,083	0,0939
619,276	0,09283
619,469	0,09183
619,663	0,0908
619,856	0,08963
620,049	0,08866
620,242	0,0877
620,436	0,08676
620,629	0,08581
620,822	0,08483
621,015	0,08382
621,209	0,0829
621,402	0,08203
621,595	0,08112
621,788	0,08012
621,981	0,07917
622,174	0,07816
622,367	0,07723
622,56	0,07628
622,753	0,07524
622,946	0,07435
623,139	0,07356
623,332	0,07271
623,525	0,07175
623,718	0,07089
623,911	0,07001
624,104	0,0692
624,297	0,06831
624,49	0,06751
624,683	0,06669
624,876	0,06594
625,069	0,06504
625,262	0,06421
625,454	0,06332
625,647	0,06257
625,84	0,06172
626,033	0,06119
626,226	0,06049
626,418	0,05983
626,611	0,05917
626,804	0,0584
626,997	0,05748
627,189	0,05694
627,382	0,05616
627,575	0,05553
627,767	0,05488
627,96	0,05425
628,153	0,05337
628,345	0,05269
628,538	0,05202
628,731	0,05138
628,923	0,0509
629,116	0,05045
629,308	0,04963
629,501	0,04896
629,693	0,04849
629,886	0,04793
630,078	0,04724
630,271	0,04676
630,463	0,04623
630,656	0,04558
630,848	0,0449
631,04	0,04425
631,233	0,04368
631,425	0,04322
631,617	0,0428
631,81	0,04216
632,002	0,04148
632,194	0,04114
632,387	0,04053
632,579	0,03994
632,771	0,03941
632,964	0,03902
633,156	0,03855
633,348	0,038
633,54	0,03764
633,732	0,03702
633,925	0,0365
634,117	0,03621
634,309	0,03562
634,501	0,0351
634,693	0,03467
634,885	0,03428
635,077	0,03377
635,269	0,03336
635,462	0,03302
635,654	0,03254
635,846	0,03227
636,038	0,03185
636,23	0,0314
636,422	0,03109
636,614	0,03073
636,806	0,03039
636,997	0,03004
637,189	0,02973
637,381	0,02925
637,573	0,02885
637,765	0,02847
637,957	0,02801
638,149	0,02779
638,341	0,02744
638,532	0,02713
638,724	0,02688
638,916	0,02659
639,108	0,02624
639,299	0,02593
639,491	0,02563
639,683	0,02539
639,875	0,02509
640,066	0,02488
640,258	0,02448
640,45	0,02414
640,641	0,02392
640,833	0,0235
641,025	0,02324
641,216	0,02285
641,408	0,02258
641,599	0,02237
641,791	0,02212
641,982	0,0219
642,174	0,02153
642,366	0,02136
642,557	0,02109
642,748	0,02069
642,94	0,02055
643,131	0,02016
643,323	0,01997
643,514	0,0197
643,706	0,01951
643,897	0,01921
644,088	0,01894
644,28	0,01872
644,471	0,01842
644,662	0,01825
644,854	0,01809
645,045	0,01794
645,236	0,0177
645,428	0,01749
645,619	0,01722
645,81	0,01697
646,001	0,01663
646,193	0,0165
646,384	0,0163
646,575	0,01608
646,766	0,01591
646,957	0,01573
647,148	0,01542
647,339	0,01534
647,531	0,01529
647,722	0,01513
647,913	0,01489
648,104	0,01483
648,295	0,01455
648,486	0,0144
648,677	0,01423
648,868	0,01409
649,059	0,01387
649,25	0,01373
649,441	0,01362
649,632	0,01326
649,823	0,01313
650,013	0,01309
650,204	0,01287
650,395	0,01269
650,586	0,01259
650,777	0,01252
650,968	0,01225
651,159	0,01217
651,349	0,01205
651,54	0,01182
651,731	0,01171
651,922	0,01165
652,112	0,01146
652,303	0,01137
652,494	0,01131
652,684	0,0112
652,875	0,01112
653,066	0,01104
653,256	0,01098
653,447	0,01087
653,638	0,01074
653,828	0,01074
654,019	0,01054
654,209	0,0104
654,4	0,01032
654,59	0,01031
654,781	0,01028
654,972	0,0101
655,162	0,01008
655,352	0,00987
655,543	0,00977
655,733	0,00971
655,924	0,00959
656,114	0,00948
656,305	0,00944
656,495	0,00937
656,685	0,00911
656,876	0,0089
657,066	0,00889
657,256	0,00883
657,447	0,00883
657,637	0,00877
657,827	0,00866
658,017	0,00862
658,208	0,00859
658,398	0,00844
658,588	0,00825
658,778	0,00831
658,968	0,00829
659,159	0,00822
659,349	0,00811
659,539	0,00794
659,729	0,00787
659,919	0,00787
660,109	0,00775
660,299	0,00769
660,489	0,00772
660,679	0,0077
660,869	0,00754
661,059	0,00752
661,249	0,00738
661,439	0,00732
661,629	0,00722
661,819	0,00723
662,009	0,00715
662,199	0,0071
662,389	0,00702
662,579	0,00693
662,769	0,00697
662,959	0,007
663,149	0,00694
663,338	0,00693
663,528	0,0069
663,718	0,00694
663,908	0,00675
664,097	0,00654
664,287	0,00639
664,477	0,00638
664,667	0,00622
664,856	0,00614
665,046	0,00606
665,236	0,0059
665,425	0,00585
665,615	0,00582
665,805	0,00579
665,994	0,00579
666,184	0,00587
666,373	0,00597
666,563	0,00587
666,753	0,00593
666,942	0,00587
667,132	0,00566
667,321	0,0057
667,511	0,00563
667,7	0,00553
667,889	0,00535
668,079	0,00534
668,268	0,00536
668,458	0,00532
668,647	0,00534
668,836	0,00529
669,026	0,0052
669,215	0,00526
669,404	0,00522
669,594	0,00511
669,783	0,0051
669,972	0,00509
670,162	0,00504
670,351	0,00488
670,54	0,00465
670,729	0,00454
670,919	0,00449
671,108	0,00455
671,297	0,00451
671,486	0,00452
671,675	0,00455
671,864	0,00454
672,053	0,00456
672,243	0,00457
672,432	0,00466
672,621	0,00482
672,81	0,00476
672,999	0,0047
673,188	0,00471
673,377	0,00467
673,566	0,00458
673,755	0,00452
673,944	0,00442
674,133	0,00432
674,322	0,0043
674,51	0,00428
674,699	0,00415
674,888	0,00416
675,077	0,00411
675,266	0,00398
675,455	0,00401
675,644	0,00402
675,832	0,00396
676,021	0,00395
676,21	0,00405
676,399	0,00392
676,587	0,00381
676,776	0,00381
676,965	0,00377
677,153	0,00378
677,342	0,00377
677,531	0,00369
677,719	0,00359
677,908	0,0036
678,097	0,0036
678,285	0,00356
678,474	0,00363
678,662	0,00371
678,851	0,00368
679,039	0,00365
679,228	0,00365
679,416	0,00367
679,605	0,00365
679,793	0,00367
679,982	0,00364
680,17	0,00363
680,359	0,00362
680,547	0,00357
680,736	0,00353
680,924	0,00362
681,112	0,00362
681,301	0,00368
681,489	0,00366
681,677	0,00365
681,866	0,00364
682,054	0,00362
682,242	0,00355
682,43	0,00354
682,619	0,00345
682,807	0,00339
682,995	0,00317
683,183	0,00303
683,371	0,00304
683,559	0,00299
683,748	0,00299
683,936	0,00296
684,124	0,00293
684,312	0,00289
684,5	0,00281
684,688	0,00294
684,876	0,00283
685,064	0,00289
685,252	0,00305
685,44	0,00293
685,628	0,00297
685,816	0,00299
686,004	0,00296
686,192	0,00298
686,38	0,00291
686,568	0,00291
686,756	0,0028
686,944	0,00288
687,131	0,00288
687,319	0,00287
687,507	0,00288
687,695	0,00272
687,883	0,00264
688,07	0,00261
688,258	0,00263
688,446	0,00274
688,634	0,00276
688,821	0,00275
689,009	0,0027
689,197	0,00272
689,384	0,00266
689,572	0,00265
689,76	0,00271
689,947	0,0027
690,135	0,0027
690,323	0,00272
690,51	0,00268
690,698	0,00262
690,885	0,00274
691,073	0,00276
691,26	0,00264
691,448	0,00264
691,635	0,00266
691,823	0,00265
692,01	0,00265
692,197	0,00261
692,385	0,00261
692,572	0,00261
692,76	0,00263
692,947	0,00249
693,134	0,00256
693,322	0,00255
693,509	0,00251
693,696	0,00235
693,884	0,00239
694,071	0,00244
694,258	0,00251
694,445	0,0025
694,633	0,00245
694,82	0,00239
695,007	0,0024
695,194	0,00234
695,381	0,00236
695,568	0,00237
695,756	0,00255
695,943	0,00243
696,13	0,00234
696,317	0,00231
696,504	0,00229
696,691	0,0023
696,878	0,00223
697,065	0,00216
697,252	0,00226
697,439	0,00228
697,626	0,00226
697,813	0,00218
698	0,00218
698,187	0,0021
698,374	0,00218
698,561	0,00219
698,747	0,00218
698,934	0,00231
699,121	0,00239
699,308	0,00224
699,495	0,00226
699,682	0,00233
699,868	0,00224
700,055	0,00222
700,242	0,00219
700,429	0,00209
700,615	0,00202
700,802	0,002
700,989	0,00194
701,175	0,00179
701,362	0,0018
701,549	0,00178
701,735	0,00176
701,922	0,00178
702,108	0,0018
702,295	0,00187
702,482	0,00177
702,668	0,0018
702,855	0,00174
703,041	0,00183
703,228	0,0019
703,414	0,00185
703,601	0,00185
703,787	0,00177
703,973	0,00169
704,16	0,00157
704,346	0,00166
704,533	0,00172
704,719	0,00167
704,905	0,00171
705,092	0,00158
705,278	0,00153
705,464	0,00157
705,65	0,00164
705,837	0,00163
706,023	0,00173
706,209	0,00187
706,395	0,00182
706,582	0,00184
706,768	0,0018
706,954	0,00188
707,14	0,00192
707,326	0,00195
707,512	0,00193
707,698	0,00187
707,885	0,00189
708,071	0,00178
708,257	0,00167
708,443	0,00174
708,629	0,00175
708,815	0,00176
709,001	0,00167
709,187	0,0016
709,373	0,00166
709,559	0,00165
709,745	0,00159
709,93	0,00152
710,116	0,00153
710,302	0,00162
710,488	0,00159
710,674	0,00157
710,86	0,00155
711,046	0,00158
711,231	0,00165
711,417	0,00162
711,603	0,0015
711,789	0,0015
711,974	0,00162
712,16	0,00167
712,346	0,0016
712,532	0,00146
712,717	0,00147
712,903	0,00142
713,089	0,0014
713,274	0,00137
713,46	0,00124
713,645	0,00139
713,831	0,00147
714,016	0,00143
714,202	0,00149
714,388	0,00172
714,573	0,00172
714,759	0,00173
714,944	0,00177
715,129	0,00171
715,315	0,00176
715,5	0,00181
715,686	0,00172
715,871	0,00165
716,057	0,00158
716,242	0,00157
716,427	0,00135
716,613	0,00141
716,798	0,00132
716,983	0,00128
717,168	0,00131
717,354	0,00128
717,539	0,00135
717,724	0,00139
717,909	0,00149
718,095	0,00156
718,28	0,00148
718,465	0,00157
718,65	0,00159
718,835	0,00153
719,02	0,00159
719,206	0,00164
719,391	0,00156
719,576	0,00144
719,761	0,00148
719,946	0,0014
720,131	0,00128
720,316	0,00124
720,501	0,00121
720,686	0,00123
720,871	0,00136
721,056	0,00137
721,241	0,0013
721,426	0,00136
721,61	0,00144
721,795	0,00137
721,98	0,00129
722,165	0,00138
722,35	0,00154
722,535	0,0015
722,719	0,00143
722,904	0,00138
723,089	0,00132
723,274	0,00134
723,458	0,00121
723,643	0,00118
723,828	0,00118
724,013	0,00119
724,197	0,00117
724,382	0,00108
724,567	0,0011
724,751	0,0011
724,936	0,00111
725,12	0,00112
725,305	0,00113
725,489	0,00122
725,674	0,00121
725,859	0,00124
726,043	0,00126
726,228	0,00128
726,412	0,00123
726,596	0,00115
726,781	0,00117
726,965	0,00113
727,15	0,0012
727,334	0,00113
727,518	0,00105
727,703	0,00108
727,887	0,00103
728,072	0,00105
728,256	0,00099
728,44	0,00098
728,624	0,0011
728,809	0,00099
728,993	0,00105
729,177	0,00101
729,361	0,00109
729,546	0,00112
729,73	0,00111
729,914	0,00098
730,098	0,00092
730,282	0,00091
730,466	0,0009
730,65	0,00091
730,834	0,00101
731,019	0,00094
731,203	0,00084
731,387	0,00088
731,571	0,00081
731,755	0,00079
731,939	0,00089
732,123	0,00093
732,306	0,00097
732,49	0,00108
732,674	0,00101
732,858	0,001
733,042	0,00103
733,226	0,00116
733,41	0,00111
733,594	0,00119
733,778	0,0012
733,961	0,0013
734,145	0,00139
734,329	0,00151
734,513	0,00148
734,696	0,00154
734,88	0,00155
735,064	0,00148
735,247	0,00141
735,431	0,00141
735,615	0,00142
735,798	0,00145
735,982	0,00139
736,166	0,00133
736,349	0,00122
736,533	0,00123
736,716	0,0012
736,9	0,00113
737,083	0,00117
737,267	0,00111
737,45	0,00101
737,634	0,00105
737,817	0,001
738,001	0,001
738,184	0,00092
738,368	0,0009
738,551	0,00074
738,734	0,00066
738,918	0,0007
739,101	0,00075
739,284	0,00076
739,468	0,00082
739,651	0,00093
739,834	0,00086
740,018	0,00075
740,201	0,00082
740,384	0,00083
740,567	0,0009
740,75	0,00097
740,934	0,00096
741,117	0,00092
741,3	0,001
741,483	0,00101
741,666	0,00082
741,849	0,00092
742,032	0,00098
742,215	0,00093
742,399	0,00096
742,582	0,00096
742,765	0,0009
742,948	0,00098
743,131	0,00103
743,314	0,0009
743,496	0,00084
743,679	0,00085
743,862	0,00085
744,045	0,0009
744,228	0,00095
744,411	0,00084
744,594	0,00076
744,777	0,00077
744,959	0,00079
745,142	0,00073
745,325	0,00089
745,508	0,00092
745,691	0,00108
745,873	0,00097
746,056	0,00104
746,239	0,00095
746,421	0,0011
746,604	0,00115
746,787	0,00118
746,969	0,00108
747,152	0,00109
747,335	0,00101
747,517	0,00109
747,7	0,00101
747,882	0,00117
748,065	0,00097
748,247	0,00107
748,43	0,00086
748,612	0,00086
748,795	0,00085
748,977	0,00075
749,16	0,00077
749,342	0,00083
749,524	0,00078
749,707	0,0007
749,889	0,00068
750,072	0,0008
750,254	0,00079
750,436	0,00089
750,619	0,0009
750,801	0,00084
750,983	0,00087
751,165	0,00082
751,348	0,0008
751,53	0,00073
751,712	0,00074
751,894	0,00074
752,076	0,00082
752,259	0,00083
752,441	0,00085
752,623	0,00086
752,805	0,00082
752,987	0,00084
753,169	0,00085
753,351	0,00083
753,533	0,00089
753,715	0,00085
753,897	0,00076
754,079	0,00064
754,261	0,00055
754,443	0,00054
754,625	0,00054
754,807	0,00062
754,989	0,00077
755,171	0,00082
755,353	0,0008
755,534	0,00075
755,716	0,0008
755,898	0,00076
756,08	0,00086
756,262	0,00085
756,443	0,00076
756,625	0,00078
756,807	0,00076
756,989	0,00057
757,17	0,00054
757,352	0,00057
757,534	0,00072
757,715	0,00073
757,897	0,00074
758,079	0,00063
758,26	0,00069
758,442	0,00082
758,623	0,0008
758,805	0,00082
758,987	0,00086
759,168	0,00079
759,35	0,0007
759,531	0,00068
759,713	0,00064
759,894	0,00055
760,075	0,00056
760,257	0,00051
760,438	0,00046
760,62	0,00043
760,801	0,00039
760,982	0,00038
761,164	0,00032
761,345	0,00042
761,526	0,00035
761,708	0,00038
761,889	0,00053
762,07	0,00049
762,251	0,0006
762,433	0,00057
762,614	0,00053
762,795	0,00056
762,976	0,00064
763,157	0,00084
763,338	0,00066
763,52	0,00068
763,701	0,00052
763,882	0,00051
764,063	0,00057
764,244	0,00051
764,425	0,00058
764,606	0,00058
764,787	0,00062
764,968	0,00056
765,149	0,00041
765,33	0,00042
765,511	0,00034
765,692	0,00037
765,873	0,00037
766,053	0,0003
766,234	0,00022
766,415	0,00023
766,596	0,00022
766,777	0,00007
766,958	0,00007
767,138	0,00014
767,319	0,00022
767,5	0,00026
767,681	0,00025
767,861	0,00033
768,042	0,00034
768,223	0,00042
768,403	0,0003
768,584	0,00041
768,765	0,00045
768,945	0,00038
769,126	0,00043
769,307	0,00046
769,487	0,00052
769,668	0,00052
769,848	0,00039
770,029	0,00039
770,209	0,00027
770,39	0,0003
770,57	0,00028
770,751	0,00027
770,931	0,00028
771,111	0,00014
771,292	0,00015
771,472	0,00006
771,653	0,00014
771,833	0,00004
772,013	0,00008
772,194	0,00025
772,374	0,00017
772,554	0,00013
772,734	0,00023
772,915	0,00037
773,095	0,00041
773,275	0,00034
773,455	0,00034
773,635	0,00031
773,816	0,0005
773,996	0,00055
774,176	0,00053
774,356	0,00062
774,536	0,00064
774,716	0,00054
774,896	0,00048
775,076	0,00038
775,256	0,00041
775,436	0,00054
775,616	0,00061
775,796	0,00062
775,976	0,00061
776,156	0,00051
776,336	0,00053
776,516	0,00046
776,696	0,00044
776,876	0,0005
777,056	0,00056
777,235	0,0005
777,415	0,00048
777,595	0,00035
777,775	0,00027
777,955	0,0001
778,134	0,00012
778,314	0,00016
778,494	0,00018
778,674	0,00029
778,853	0,00019
779,033	0,00016
779,213	0,0002
779,392	0,00012
779,572	0,00017
779,751	0,00009
779,931	0,00014
780,111	0,00014
780,29	0,00003
780,47	0,00003
780,649	-0,00011
780,829	-0,00011
781,008	-0,00004
781,188	-0,00003
781,367	0,00006
781,546	0,00005
781,726	0,00005
781,905	0,00003
782,085	-0,00002
782,264	0,00005
782,443	0,00007
782,623	0,00017
782,802	0,0002
782,981	0,00013
783,161	0,0001
783,34	0,00005
783,519	0,00014
783,698	0,00026
783,878	0,00033
784,057	0,00039
784,236	0,00044
784,415	0,00053
784,594	0,00067
784,773	0,0007
784,952	0,00074
785,132	0,00068
785,311	0,00079
785,49	0,00063
785,669	0,00056
785,848	0,00059
786,027	0,00049
786,206	0,00051
786,385	0,00041
786,564	0,00022
786,743	0,00014
786,922	0,00018
787,1	0,0002
787,279	0,00001
787,458	0,00005
787,637	0,00025
787,816	0,00026
787,995	0,00017
788,174	-0
788,352	0,0001
788,531	0,00018
788,71	0,00017
788,889	0,00015
789,067	0,00013
789,246	0,00019
789,425	0,00032
789,603	0,00013
789,782	0,00005
789,961	0,00016
790,139	0,00029
790,318	0,00014
790,496	0,00012
790,675	0,00033
790,853	0,00031
791,032	0,00033
791,211	0,00034
791,389	0,0002
791,568	0,00033
791,746	0,00038
791,924	0,00046
792,103	0,00045
792,281	0,00051
792,46	0,00049
792,638	0,00042
792,816	0,00051
792,995	0,00058
793,173	0,0006
793,351	0,00056
793,53	0,00054
793,708	0,00054
793,886	0,00057
794,064	0,00052
794,243	0,00063
794,421	0,00062
794,599	0,00049
794,777	0,00034
794,955	0,0002
795,133	0,00011
795,312	0,00028
795,49	0,00019
795,668	0,00013
795,846	0,00007
796,024	0,00016
796,202	0,00007
796,38	0,00009
796,558	0,00003
796,736	0,00006
796,914	0,00016
797,092	0,00009
797,27	0,00001
797,448	0,00002
797,626	-0,00007
797,803	-0,00009
797,981	-0,00018
798,159	-0,00023
798,337	-0,0002
798,515	-0,00017
798,693	-0,0001
798,87	-0,00015
799,048	-0,0001
799,226	-0,00019
799,404	-0,00024
799,581	-0,00015
799,759	-0,00015
799,937	-0,00014
800,114	-0,00013
800,292	-0,00017
800,469	-0,00005
800,647	-0,00014
800,825	-0,00012
801,002	-0,00018
801,18	-0,00022
801,357	-0,00005
801,535	-0
801,712	0,00012
801,89	0,00019
802,067	0,00018
802,245	0,00015
802,422	0,00007
802,6	0,00004
802,777	0,00008
802,954	0,00024
803,132	0,00051
803,309	0,00032
803,486	0,00023
803,664	0,00011
803,841	0,0001
804,018	0,00012
804,195	0,0003
804,373	0,00024
804,55	0,00035
804,727	0,00038
804,904	0,00027
805,081	0,00015
805,259	0,00018
805,436	0,00011
805,613	0,00006
805,79	-0,00008
805,967	-0,00015
806,144	-0,00031
806,321	-0,00017
806,498	-0,00014
806,675	-0,00017
806,852	-0,00018
807,029	-0,00013
807,206	-0,0001
807,383	0,00006
807,56	0,0001
807,737	0,00021
807,914	0,0002
808,091	0,00034
808,268	0,00034
808,444	0,0003
808,621	0,00027
808,798	0,00013
808,975	0,00012
809,152	-0,00003
809,328	0,00002
809,505	0,00001
809,682	-0,00004
809,858	-0,00003
810,035	-0,00013
810,212	-0,0003
810,388	-0,00031
810,565	-0,00007
810,742	0,00007
810,918	-0
811,095	0,00001
811,271	0
811,448	0,00003
811,625	0,00011
811,801	0,00025
811,978	0,00031
812,154	0,00033
812,33	0,0004
812,507	0,00025
812,683	0,0002
812,86	0,00032
813,036	0,00045
813,212	0,00038
813,389	0,00031
813,565	0,00017
813,741	0,00016
813,918	0,00013
814,094	0,00024
814,27	0,00012
814,447	0,00012
814,623	0,00027
814,799	0,00013
814,975	0,00003
815,151	-0,00001
815,328	-0,00011
815,504	0,00006
815,68	-0,00007
815,856	-0,00002
816,032	-0
816,208	-0,00009
816,384	-0,00017
816,56	-0,00019
816,736	-0,0002
816,912	-0,00018
817,088	-0,00008
817,264	0,00009
817,44	-0
817,616	0,00005
817,792	0,00004
817,968	0,00001
818,144	0,00024
818,32	0,00025
818,495	0,00021
818,671	0,00028
818,847	0,00033
819,023	0,00038
819,199	0,00037
819,374	0,00041
819,55	0,00038
819,726	0,00023
819,902	0,00012
820,077	-0,00008
820,253	0,00005
820,429	0,00008
820,604	0,00022
820,78	0,00031
820,956	0,00028
821,131	0,00013
821,307	0,0002
821,482	0,00022
821,658	0,00042
821,833	0,00021
822,009	0,00014
822,184	0,00011
822,36	0,00006
822,535	-0,00015
822,711	-0,00029
822,886	-0,00026
823,061	-0,00025
823,237	-0,00028
823,412	-0,00024
823,587	-0,00035
823,763	-0,00017
823,938	-0,00013
824,113	-0,00023
824,289	-0,00026
824,464	-0,00012
824,639	-0,00004
824,814	-0,00024
824,99	-0,00015
825,165	-0,00015
825,34	-0,00011
825,515	-0,00002
825,69	-0,00006
825,865	0,00008
826,04	0,00012
826,215	0,00036
826,39	0,00065
826,566	0,00061
826,741	0,0008
826,916	0,00088
827,091	0,00077
827,265	0,00084
827,44	0,00079
827,615	0,00092
827,79	0,00071
827,965	0,00068
828,14	0,0005
828,315	0,00018
828,49	0,00022
828,665	0,00028
828,839	0,00006
829,014	0,00025
829,189	0,00002
829,364	0,00005
829,538	0,00015
829,713	0,00029
829,888	0,00028
830,063	0,00033
830,237	0,00024
830,412	0,0002
830,587	0,00001
830,761	0,00015
830,936	0,00003
831,11	0,00006
831,285	-0,00012
831,459	-0,00015
831,634	-0,00014
831,809	-0,00002
831,983	-0,0001
832,157	0,00005
832,332	0,00009
832,506	0,00014
832,681	0,00003
832,855	-0,00004
833,03	-0,00006
833,204	0,00009
833,378	0,00002
833,553	-0,00012
833,727	-0,00012
833,901	-0,00001
834,076	-0,00008
834,25	-0,00017
834,424	-0,00009
834,598	0,00017
834,773	0,00021
834,947	0,00048
835,121	0,00062
835,295	0,00059
835,469	0,00078
835,643	0,00063
835,817	0,00042
835,991	0,00015
836,166	0,00016
836,34	0,00022
836,514	0,00007
836,688	0,0001
836,862	0,00003
837,036	-0,00032
837,21	-0,00028
837,384	-0,00017
837,557	0,00014
837,731	0,00035
837,905	0,00068
838,079	0,00069
838,253	0,00059
838,427	0,00054
838,601	0,00042
838,774	0,00035
838,948	0,00054
839,122	0,00056
839,296	0,00047
839,469	0,00037
839,643	0,00023
839,817	0,00001
839,991	-0,00017
840,164	-0,00016
840,338	-0,00034
840,512	-0,00013
840,685	-0,00015
840,859	-0,0002
841,032	-0,00032
841,206	-0,00032
841,379	-0,00053
841,553	-0,00032
841,726	-0,00005
841,9	0,00025
842,073	0,00046
842,247	0,00072
842,42	0,00055
842,594	0,00067
842,767	0,0007
842,94	0,00086
843,114	0,00111
843,287	0,00117
843,46	0,00086
843,634	0,00061
843,807	0,0006
843,98	0,00042
844,154	0,00041
844,327	0,0005
844,5	0,00031
844,673	0,00033
844,846	0,00032
845,02	0,00004
845,193	-0,00012
845,366	-0,00003
845,539	0,00001
845,712	-0,00003
845,885	-0,00013
846,058	-0,00011
846,231	-0,00014
846,404	-0,00018
846,577	0,00001
846,75	0,00008
846,923	0,00011
847,096	0,00018
847,269	0,00024
847,442	0,00031
847,615	0,00045
847,788	0,00047
847,961	0,0004
848,133	0,00042
848,306	0,00047
848,479	0,00024
848,652	0,0003
848,825	0,00034
848,997	0,00042
849,17	0,00034
849,343	0,00024
849,515	0,00008
849,688	0,00011
849,861	-0,00001
850,033	0,00016
850,206	0,00034
850,379	0,00041
850,551	0,00025
850,724	0,00025
850,896	0,00017
851,069	0,00033
851,241	0,00036
851,414	0,00039
851,586	0,00023
851,759	0,00052
851,931	0,00037
852,104	0,00033
852,276	0,0002
852,449	0,00022
852,621	0,00005
852,793	-0,00005
852,966	-0,00011
853,138	0,00013
853,31	0,00003
853,483	0,00033
853,655	0,00018
853,827	-0,00004
853,999	-0,00024
854,172	-0,00025
854,344	-0,00032
854,516	-0,00003
854,688	0,00011
854,86	-0
855,032	-0,00021
855,204	-0,00021
855,377	-0,00029
855,549	-0,00031
855,721	-0,00038
855,893	-0,00029
856,065	-0,00023
856,237	-0,00039
856,409	-0,00081
856,581	-0,00082
856,753	-0,00059
856,924	-0,00053
857,096	-0,0004
857,268	-0,00028
857,44	-0,00025
857,612	0,00002
857,784	-0,00002
857,956	0,00011
858,127	0,00031
858,299	0,00041
858,471	0,00036
858,643	0,00033
858,814	0,00039
858,986	0,00029
859,158	0,00016
859,33	0,00028
859,501	0,00012
859,673	0,00011
859,844	0,00002
860,016	-0,00011
860,188	0,00006
860,359	0,00016
860,531	0,00007
860,702	-0,00005
860,874	-0,0002
861,045	-0,00018
861,217	-0,0005
861,388	-0,00038
861,56	-0,00042
861,731	-0,00049
861,902	-0,0004
862,074	-0,00057
862,245	-0,00038
862,417	-0,00033
862,588	-0,00033
862,759	-0,00019
862,931	-0,00039
863,102	-0,0001
863,273	-0,00002
863,444	-0
863,616	0,00025
863,787	0,00009
863,958	0,00018
864,129	-0,00011
864,3	-0,00014
864,471	-0,00018
864,642	0,00008
864,814	-0,00012
864,985	-0,00028
865,156	-0,00046
865,327	-0,00054
865,498	-0,00073
865,669	-0,00064
865,84	-0,00061
866,011	-0,00051
866,182	-0,00064
866,353	-0,00056
866,523	-0,00097
866,694	-0,00048
866,865	-0,00042
867,036	-0,00038
867,207	-0,00028
867,378	-0,0005
867,549	-0,00051
867,719	-0,00054
867,89	-0,00081
868,061	-0,00066
868,232	-0,00072
868,402	-0,00068
868,573	-0,00112
868,744	-0,00093
868,914	-0,00082
869,085	-0,00103
869,256	-0,00095
869,426	-0,0012
869,597	-0,00108
869,767	-0,00093
869,938	-0,00092
870,108	-0,00075
870,279	-0,0008
870,449	-0,00071
870,62	-0,00093
870,79	-0,00096
870,961	-0,00072
871,131	-0,00054
871,302	-0,00008
871,472	-0,00023
871,642	-0,00013
871,813	-0,00036
871,983	-0,00043
872,153	-0,00022
872,324	-0,00008
872,494	-0,00024
872,664	-0,0005
872,835	-0,00033
873,005	-0,00029
873,175	-0,00056
873,345	-0,00049
873,515	-0,00067
873,685	-0,00071
873,856	-0,00078
874,026	-0,00088
874,196	-0,00086
874,366	-0,00086
874,536	-0,0005
874,706	-0,00077
874,876	-0,0008
875,046	-0,00085
875,216	-0,0009
875,386	-0,00021
875,556	0,0002
875,726	-0,00001
875,896	0,00001
876,066	0,0002
876,236	0,00003
876,405	-0,0004
876,575	-0,00047
876,745	-0,00072
876,915	-0,00014
877,085	0,0001
877,254	-0,00026
877,424	-0,00042
877,594	-0,00021
877,764	-0,00029
877,933	-0,00038
878,103	0,00004
878,273	0,00065
878,442	0,00078
878,612	0,0009
878,781	0,00069
878,951	0,00066
879,121	0,0005
879,29	0,00022
879,46	0,00024
879,629	0,00061
879,799	0,00062
879,968	0,00083
880,138	0,0007
880,307	0,00091
880,476	0,001
880,646	0,00073
880,815	0,00044
880,985	0,00054
881,154	0,00066
881,323	0,00047
881,493	0,00011
881,662	-0,00016
881,831	-0,00005
882	-0,00017
882,17	-0,00025
882,339	-0,00051
882,508	-0,00055
882,677	-0,00022
882,846	0,00008
883,016	0,00025
883,185	0,00024
883,354	0,00034
883,523	0,00047
883,692	0,00028
883,861	0,00043
884,03	0,00009
884,199	0,00045
884,368	0,00076
884,537	0,00024
884,706	-0,00025
884,875	-0,00031
885,044	0,00004
885,213	0,0002
885,382	0,00018
885,55	-0,0001
885,719	-0,00005
885,888	0,0001
886,057	0,00012
886,226	-0,00006
886,395	0,0004
886,563	0,00058
886,732	0,00064
886,901	0,00047
887,069	0,00025
887,238	0,00038
887,407	0,00071
887,575	0,00056
887,744	0,00068
887,913	0,00042
888,081	0,00053
888,25	0,00043
888,418	0,00048
888,587	0,00019
888,755	0,00014
888,924	0,00024
889,092	0,00008
889,261	-0,00027
889,429	-0,00031
889,598	-0,0003
889,766	-0,00007
889,935	-0,00036
890,103	-0,00057
890,271	-0,00076
890,44	-0,0008
890,608	-0,00107
890,776	-0,00135
890,944	-0,00139
891,113	-0,00132
891,281	-0,00184
891,449	-0,00182
891,617	-0,00229
891,786	-0,00214
891,954	-0,00207
892,122	-0,00166
892,29	-0,00132
892,458	-0,00122
892,626	-0,0009
892,794	-0,00085
892,962	-0,00082
893,13	-0,00027
893,298	-0,0003
893,466	0,00034
