Data from Chemiepractica_Absorbance__2__11-31-13-085.txt Node

Date: Mon Dec 09 11:31:13 CET 2024
User: r0948668
Spectrometer: USB4F07138
Trigger mode: 4
Integration Time (sec): 6,000000E-3
Scans to average: 20
Electric dark correction enabled: true
Nonlinearity correction enabled: false
Boxcar width: 5
XAxis mode: Wavelengths
Number of Pixels in Spectrum: 3648
>>>>>Begin Spectral Data<<<<<
176,779	-0
176,999	-0
177,218	-0
177,438	-1,57247
177,658	-0,81926
177,878	-0,48071
178,097	-0,22078
178,317	-0,40566
178,537	-0,30613
178,757	0,12308
178,976	0,3465
179,196	-0
179,416	0,12172
179,635	-0,02619
179,855	-0,00347
180,075	-0,02561
180,294	-0,05901
180,514	-0,09497
180,734	-0,04001
180,953	-0,0346
181,173	-0,04735
181,392	-0,04598
181,612	-0,03203
181,832	-0,00191
182,051	0,00015
182,271	-0,00239
182,49	-0,00123
182,71	0,00957
182,929	0,02581
183,149	0,00568
183,368	0,02417
183,588	0,02609
183,807	0,02801
184,027	0,03921
184,246	0,02323
184,466	0,02486
184,685	0,04172
184,905	0,03677
185,124	0,03759
185,344	0,04636
185,563	0,06599
185,782	0,06463
186,002	0,06199
186,221	0,06322
186,44	0,05456
186,66	0,06374
186,879	0,08437
187,099	0,07289
187,318	0,07088
187,537	0,06189
187,756	0,0604
187,976	0,04489
188,195	0,03363
188,414	0,0418
188,634	0,04571
188,853	0,04212
189,072	0,03635
189,291	0,01165
189,511	0,02833
189,73	0,03584
189,949	0,03825
190,168	0,02892
190,387	0,04586
190,607	0,04501
190,826	0,0325
191,045	0,02784
191,264	0,03123
191,483	0,02689
191,702	0,03236
191,921	0,02223
192,141	0,02733
192,36	0,03285
192,579	0,03496
192,798	0,03264
193,017	0,02199
193,236	0,04008
193,455	0,04456
193,674	0,04411
193,893	0,04242
194,112	0,04857
194,331	0,04074
194,55	0,03732
194,769	0,02544
194,988	0,02387
195,207	0,02697
195,426	0,02906
195,645	0,01894
195,864	0,01542
196,083	0,0133
196,302	0,00817
196,521	0,00363
196,739	0,00621
196,958	-0,00009
197,177	0,004
197,396	0,02316
197,615	0,01477
197,834	0,0202
198,053	0,01249
198,271	0,00366
198,49	0,01634
198,709	0,03793
198,928	0,04277
199,147	0,04242
199,365	0,0617
199,584	0,06028
199,803	0,03779
200,022	0,03689
200,24	0,02607
200,459	0,03334
200,678	0,0473
200,897	0,03521
201,115	0,02337
201,334	0,02979
201,553	0,02781
201,771	0,0216
201,99	0,02049
202,209	0,03134
202,427	0,03846
202,646	0,04969
202,864	0,04201
203,083	0,03158
203,302	0,04909
203,52	0,05772
203,739	0,04687
203,957	0,05969
204,176	0,06151
204,394	0,06382
204,613	0,05613
204,831	0,05219
205,05	0,05954
205,268	0,06635
205,487	0,07171
205,705	0,0528
205,924	0,04885
206,142	0,05591
206,361	0,05237
206,579	0,05041
206,798	0,05551
207,016	0,05418
207,234	0,05328
207,453	0,0561
207,671	0,06858
207,89	0,07002
208,108	0,07563
208,326	0,06274
208,545	0,05021
208,763	0,03779
208,981	0,01992
209,2	0,00278
209,418	0,00258
209,636	0,00408
209,855	0,0032
210,073	-0,01441
210,291	-0,02029
210,509	-0,0269
210,728	-0,0173
210,946	-0,00573
211,164	-0,00595
211,382	0,01175
211,6	0,0363
211,819	0,04196
212,037	0,03879
212,255	0,01097
212,473	0,01135
212,691	0,00914
212,909	0,02651
213,128	0,0171
213,346	0,0029
213,564	0,01121
213,782	0,01717
214	0,01756
214,218	0,0158
214,436	0,02135
214,654	0,0372
214,872	0,03437
215,09	0,02332
215,308	0,02535
215,526	0,04094
215,744	0,05938
215,962	0,06436
216,18	0,05172
216,398	0,05269
216,616	0,04441
216,834	0,03317
217,052	0,03843
217,27	0,03663
217,488	0,04754
217,706	0,03959
217,924	0,03482
218,142	0,03462
218,36	0,03268
218,578	0,03965
218,795	0,02194
219,013	0,02535
219,231	0,03104
219,449	0,01859
219,667	0,02169
219,885	0,02648
220,102	0,03056
220,32	0,0386
220,538	0,04366
220,756	0,03445
220,973	0,04234
221,191	0,04868
221,409	0,04462
221,627	0,04539
221,844	0,05243
222,062	0,05047
222,28	0,05073
222,497	0,05131
222,715	0,04411
222,933	0,02271
223,15	0,02456
223,368	0,01162
223,586	0,01958
223,803	0,02432
224,021	0,0243
224,239	0,0313
224,456	0,04313
224,674	0,04084
224,891	0,04307
225,109	0,03346
225,326	0,04466
225,544	0,04628
225,762	0,04234
225,979	0,0428
226,197	0,04863
226,414	0,04052
226,632	0,0315
226,849	0,01622
227,066	0,02247
227,284	0,0141
227,501	0,01821
227,719	0,03001
227,936	0,0308
228,154	0,03493
228,371	0,03343
228,588	0,02592
228,806	0,03896
229,023	0,05323
229,241	0,07321
229,458	0,0691
229,675	0,07365
229,893	0,06811
230,11	0,0664
230,327	0,06013
230,545	0,06728
230,762	0,05252
230,979	0,06453
231,196	0,06626
231,414	0,05814
231,631	0,03855
231,848	0,02795
232,065	0,01917
232,283	0,02371
232,5	0,01103
232,717	0,01288
232,934	-0,00773
233,151	0,0027
233,368	-0,00539
233,586	-0,01238
233,803	-0,00403
234,02	0,02303
234,237	0,0313
234,454	0,04002
234,671	0,06441
234,888	0,07898
235,105	0,09186
235,322	0,11708
235,54	0,11928
235,757	0,12205
235,974	0,11055
236,191	0,09393
236,408	0,08252
236,625	0,08535
236,842	0,07458
237,059	0,06355
237,276	0,04794
237,493	0,04621
237,71	0,05048
237,926	0,03892
238,143	0,04822
238,36	0,06078
238,577	0,05257
238,794	0,04255
239,011	0,04608
239,228	0,05048
239,445	0,04015
239,662	0,05773
239,878	0,05942
240,095	0,04766
240,312	0,06364
240,529	0,05244
240,746	0,05889
240,963	0,07284
241,179	0,07926
241,396	0,08241
241,613	0,08279
241,83	0,08637
242,046	0,07484
242,263	0,06744
242,48	0,06898
242,697	0,06107
242,913	0,06185
243,13	0,04451
243,347	0,03802
243,563	0,0401
243,78	0,03826
243,997	0,04626
244,213	0,04117
244,43	0,05551
244,646	0,05727
244,863	0,07367
245,08	0,07122
245,296	0,07238
245,513	0,07925
245,729	0,09077
245,946	0,09166
246,162	0,09271
246,379	0,08966
246,595	0,09524
246,812	0,07223
247,028	0,06434
247,245	0,05624
247,461	0,04703
247,678	0,03921
247,894	0,04484
248,111	0,037
248,327	0,03073
248,544	0,02773
248,76	0,02463
248,976	0,02585
249,193	0,02726
249,409	0,03764
249,626	0,03366
249,842	0,045
250,058	0,04873
250,275	0,03945
250,491	0,03836
250,707	0,03867
250,924	0,03874
251,14	0,03898
251,356	0,04281
251,572	0,04562
251,789	0,03702
252,005	0,033
252,221	0,02821
252,437	0,03479
252,654	0,03523
252,87	0,03064
253,086	0,03375
253,302	0,03573
253,518	0,0447
253,735	0,02904
253,951	0,03391
254,167	0,04166
254,383	0,03483
254,599	0,03217
254,815	0,02903
255,031	0,02938
255,247	0,03147
255,463	0,02677
255,68	0,03827
255,896	0,035
256,112	0,04349
256,328	0,03975
256,544	0,03206
256,76	0,04513
256,976	0,04451
257,192	0,05636
257,408	0,06686
257,624	0,06749
257,84	0,0761
258,056	0,07348
258,272	0,07402
258,487	0,06807
258,703	0,07147
258,919	0,07277
259,135	0,05994
259,351	0,0723
259,567	0,06392
259,783	0,05343
259,999	0,05478
260,215	0,05744
260,43	0,03827
260,646	0,03573
260,862	0,04374
261,078	0,03539
261,294	0,02962
261,509	0,04086
261,725	0,03147
261,941	0,0274
262,157	0,0373
262,372	0,04307
262,588	0,03766
262,804	0,04627
263,019	0,04665
263,235	0,04476
263,451	0,05813
263,667	0,06643
263,882	0,06642
264,098	0,07102
264,313	0,0881
264,529	0,08385
264,745	0,08477
264,96	0,07281
265,176	0,07735
265,391	0,0675
265,607	0,07227
265,823	0,0647
266,038	0,06331
266,254	0,05646
266,469	0,05518
266,685	0,04686
266,9	0,03621
267,116	0,03632
267,331	0,05008
267,547	0,0444
267,762	0,05282
267,978	0,04758
268,193	0,04829
268,408	0,04906
268,624	0,05705
268,839	0,06066
269,055	0,05069
269,27	0,06562
269,485	0,06151
269,701	0,05463
269,916	0,05976
270,132	0,06448
270,347	0,0743
270,562	0,06985
270,777	0,07643
270,993	0,06755
271,208	0,05954
271,423	0,0703
271,639	0,06791
271,854	0,05939
272,069	0,05679
272,284	0,05627
272,5	0,04098
272,715	0,04066
272,93	0,04061
273,145	0,03444
273,36	0,04759
273,576	0,05261
273,791	0,04969
274,006	0,04676
274,221	0,05128
274,436	0,05343
274,651	0,05373
274,866	0,07186
275,081	0,06935
275,296	0,07538
275,512	0,08252
275,727	0,09037
275,942	0,09013
276,157	0,07815
276,372	0,07929
276,587	0,07945
276,802	0,08403
277,017	0,07347
277,232	0,07019
277,447	0,07269
277,662	0,06699
277,877	0,05705
278,092	0,04323
278,306	0,04826
278,521	0,04867
278,736	0,04383
278,951	0,04658
279,166	0,04112
279,381	0,04304
279,596	0,03406
279,811	0,01516
280,025	0,01352
280,24	0,01889
280,455	0,02203
280,67	0,01468
280,885	0,01864
281,099	0,02204
281,314	0,01924
281,529	0,02426
281,744	0,03993
281,959	0,04139
282,173	0,05634
282,388	0,06277
282,603	0,06439
282,817	0,06277
283,032	0,06859
283,247	0,06929
283,461	0,06823
283,676	0,06217
283,891	0,06634
284,105	0,05769
284,32	0,06173
284,535	0,0656
284,749	0,06553
284,964	0,07187
285,178	0,07189
285,393	0,08265
285,607	0,08382
285,822	0,08992
286,036	0,10274
286,251	0,09524
286,465	0,09475
286,68	0,09648
286,894	0,09332
287,109	0,09806
287,323	0,08393
287,538	0,08575
287,752	0,06618
287,967	0,06431
288,181	0,04649
288,396	0,05138
288,61	0,05753
288,824	0,06321
289,039	0,05443
289,253	0,05139
289,467	0,05068
289,682	0,05177
289,896	0,04795
290,11	0,05499
290,325	0,05556
290,539	0,05874
290,753	0,05662
290,968	0,05121
291,182	0,04077
291,396	0,05396
291,61	0,05379
291,825	0,05603
292,039	0,05066
292,253	0,0549
292,467	0,05051
292,681	0,0538
292,896	0,05571
293,11	0,04237
293,324	0,04979
293,538	0,05185
293,752	0,05088
293,966	0,0454
294,18	0,03463
294,394	0,03355
294,608	0,03711
294,823	0,03767
295,037	0,03235
295,251	0,0389
295,465	0,0488
295,679	0,03874
295,893	0,04458
296,107	0,02817
296,321	0,04568
296,535	0,04323
296,749	0,0511
296,963	0,03734
297,177	0,04022
297,391	0,04047
297,604	0,03163
297,818	0,02275
298,032	0,0193
298,246	0,01259
298,46	0,02477
298,674	0,02181
298,888	0,02742
299,102	0,03302
299,315	0,04321
299,529	0,0523
299,743	0,06048
299,957	0,06519
300,171	0,074
300,385	0,08482
300,598	0,07806
300,812	0,07276
301,026	0,06532
301,24	0,0705
301,453	0,05667
301,667	0,05531
301,881	0,05469
302,094	0,04242
302,308	0,04312
302,522	0,05131
302,735	0,0426
302,949	0,04803
303,163	0,04726
303,376	0,04871
303,59	0,05078
303,803	0,05353
304,017	0,06033
304,231	0,05201
304,444	0,06029
304,658	0,07014
304,871	0,06289
305,085	0,06794
305,298	0,06823
305,512	0,07423
305,725	0,07389
305,939	0,07137
306,152	0,06574
306,366	0,04821
306,579	0,05052
306,793	0,05591
307,006	0,0427
307,22	0,04137
307,433	0,03615
307,646	0,03225
307,86	0,0313
308,073	0,03303
308,286	0,02104
308,5	0,0275
308,713	0,02764
308,926	0,03157
309,14	0,02066
309,353	0,02203
309,566	0,01359
309,78	0,00825
309,993	0,01433
310,206	0,0143
310,419	0,01522
310,633	0,02734
310,846	0,03751
311,059	0,04202
311,272	0,03166
311,486	0,03478
311,699	0,03578
311,912	0,04118
312,125	0,05897
312,338	0,05738
312,551	0,05605
312,764	0,04918
312,978	0,05222
313,191	0,05115
313,404	0,0463
313,617	0,05525
313,83	0,05648
314,043	0,0587
314,256	0,05583
314,469	0,04521
314,682	0,04437
314,895	0,05211
315,108	0,06336
315,321	0,06102
315,534	0,05625
315,747	0,05632
315,96	0,05268
316,173	0,05558
316,386	0,06029
316,599	0,0642
316,812	0,06877
317,025	0,07617
317,237	0,06659
317,45	0,05359
317,663	0,04591
317,876	0,05678
318,089	0,06407
318,302	0,06578
318,515	0,05841
318,727	0,04316
318,94	0,03553
319,153	0,0297
319,366	0,02257
319,578	0,0197
319,791	0,03234
320,004	0,02438
320,217	0,01487
320,429	0,01491
320,642	0,01092
320,855	0,00997
321,067	0,01112
321,28	0,01305
321,493	0,01571
321,705	0,02491
321,918	0,0336
322,131	0,03175
322,343	0,04177
322,556	0,04716
322,768	0,04577
322,981	0,04639
323,194	0,04901
323,406	0,04869
323,619	0,05348
323,831	0,06293
324,044	0,05446
324,256	0,04757
324,469	0,04494
324,681	0,05358
324,894	0,04486
325,106	0,04471
325,319	0,03575
325,531	0,03702
325,743	0,04162
325,956	0,04101
326,168	0,03575
326,381	0,03594
326,593	0,03474
326,805	0,03483
327,018	0,02148
327,23	0,02094
327,442	0,03233
327,655	0,03438
327,867	0,03158
328,079	0,03207
328,292	0,03272
328,504	0,03915
328,716	0,03217
328,928	0,03958
329,141	0,03959
329,353	0,03746
329,565	0,04233
329,777	0,03568
329,99	0,04598
330,202	0,05007
330,414	0,04768
330,626	0,04092
330,838	0,03334
331,05	0,03384
331,263	0,02734
331,475	0,02679
331,687	0,04241
331,899	0,04465
332,111	0,03754
332,323	0,03399
332,535	0,04266
332,747	0,04497
332,959	0,0485
333,171	0,05297
333,383	0,05216
333,595	0,05561
333,807	0,05545
334,019	0,04421
334,231	0,04213
334,443	0,04677
334,655	0,04026
334,867	0,02888
335,079	0,0358
335,291	0,0311
335,503	0,03496
335,714	0,03619
335,926	0,04703
336,138	0,03803
336,35	0,03986
336,562	0,03805
336,774	0,03689
336,986	0,03841
337,197	0,04427
337,409	0,03859
337,621	0,04171
337,833	0,03356
338,044	0,03718
338,256	0,02438
338,468	0,03653
338,68	0,03242
338,891	0,03421
339,103	0,02998
339,315	0,03303
339,526	0,02724
339,738	0,01813
339,95	0,018
340,161	0,02422
340,373	0,01961
340,585	0,01105
340,796	0,00627
341,008	0,01171
341,219	0,01133
341,431	0,00718
341,642	0,00945
341,854	0,01371
342,065	0,02734
342,277	0,02356
342,489	0,01423
342,7	0,02139
342,912	0,03066
343,123	0,02994
343,334	0,03645
343,546	0,02551
343,757	0,03174
343,969	0,02594
344,18	0,01916
344,392	0,01137
344,603	0,01984
344,814	0,02555
345,026	0,02053
345,237	0,01697
345,448	0,01859
345,66	0,01396
345,871	0,02501
346,082	0,02633
346,294	0,03376
346,505	0,04087
346,716	0,04172
346,927	0,0437
347,139	0,04443
347,35	0,04941
347,561	0,05225
347,772	0,04916
347,984	0,04809
348,195	0,04807
348,406	0,04375
348,617	0,04796
348,828	0,04205
349,039	0,04445
349,251	0,04003
349,462	0,03808
349,673	0,03194
349,884	0,03388
350,095	0,03029
350,306	0,02465
350,517	0,0251
350,728	0,02813
350,939	0,02517
351,15	0,03131
351,361	0,02794
351,572	0,03476
351,783	0,02908
351,994	0,02984
352,205	0,02496
352,416	0,02774
352,627	0,03497
352,838	0,03503
353,049	0,03922
353,26	0,04293
353,471	0,03677
353,682	0,04072
353,893	0,03797
354,103	0,04424
354,314	0,04219
354,525	0,05037
354,736	0,05541
354,947	0,05434
355,157	0,0531
355,368	0,05027
355,579	0,04026
355,79	0,0455
356,001	0,04231
356,211	0,03971
356,422	0,02463
356,633	0,03335
356,843	0,03537
357,054	0,02718
357,265	0,03037
357,476	0,02847
357,686	0,02395
357,897	0,0323
358,107	0,02925
358,318	0,03198
358,529	0,03222
358,739	0,05059
358,95	0,04
359,16	0,0289
359,371	0,03025
359,582	0,02266
359,792	0,0269
360,003	0,0315
360,213	0,02083
360,424	0,02309
360,634	0,02875
360,845	0,023
361,055	0,01678
361,266	0,02331
361,476	0,03328
361,686	0,03004
361,897	0,03698
362,107	0,03157
362,318	0,03145
362,528	0,03719
362,738	0,03381
362,949	0,03024
363,159	0,0339
363,369	0,03249
363,58	0,02683
363,79	0,02169
364	0,02756
364,211	0,01774
364,421	0,01804
364,631	0,02306
364,842	0,01883
365,052	0,01989
365,262	0,01602
365,472	0,01846
365,682	0,01707
365,893	0,02247
366,103	0,02609
366,313	0,02172
366,523	0,0318
366,733	0,03078
366,943	0,02942
367,154	0,03516
367,364	0,04004
367,574	0,03653
367,784	0,0384
367,994	0,04313
368,204	0,04361
368,414	0,04225
368,624	0,04505
368,834	0,04282
369,044	0,04539
369,254	0,04283
369,464	0,03792
369,674	0,03614
369,884	0,03508
370,094	0,02774
370,304	0,02231
370,514	0,02189
370,724	0,01688
370,934	0,0131
371,144	0,00709
371,353	0,00554
371,563	0,00607
371,773	0,00775
371,983	0,00905
372,193	0,01468
372,403	0,02047
372,612	0,02085
372,822	0,01931
373,032	0,02169
373,242	0,02609
373,452	0,03225
373,661	0,0352
373,871	0,03351
374,081	0,03588
374,29	0,03527
374,5	0,035
374,71	0,03124
374,92	0,03383
375,129	0,03395
375,339	0,0312
375,549	0,02856
375,758	0,02551
375,968	0,02018
376,177	0,01728
376,387	0,01549
376,597	0,0127
376,806	0,01425
377,016	0,01543
377,225	0,015
377,435	0,01044
377,644	0,01008
377,854	0,01346
378,063	0,01694
378,273	0,02105
378,482	0,02221
378,692	0,02619
378,901	0,02742
379,111	0,02657
379,32	0,03008
379,529	0,0307
379,739	0,03874
379,948	0,03844
380,158	0,03886
380,367	0,04297
380,576	0,04342
380,786	0,03795
380,995	0,03905
381,204	0,03924
381,414	0,03722
381,623	0,03608
381,832	0,04032
382,041	0,03748
382,251	0,04296
382,46	0,04292
382,669	0,03298
382,878	0,03226
383,088	0,03767
383,297	0,03462
383,506	0,03134
383,715	0,02819
383,924	0,02569
384,133	0,02037
384,342	0,0211
384,552	0,01954
384,761	0,02238
384,97	0,02761
385,179	0,0289
385,388	0,02999
385,597	0,028
385,806	0,0306
386,015	0,03275
386,224	0,03388
386,433	0,03393
386,642	0,03014
386,851	0,0271
387,06	0,02359
387,269	0,02305
387,478	0,02482
387,687	0,02511
387,896	0,0249
388,105	0,02349
388,314	0,02055
388,523	0,01903
388,731	0,01903
388,94	0,02319
389,149	0,02359
389,358	0,02269
389,567	0,02255
389,776	0,01989
389,984	0,0209
390,193	0,02193
390,402	0,02146
390,611	0,0258
390,819	0,03037
391,028	0,03419
391,237	0,03222
391,446	0,03318
391,654	0,03482
391,863	0,03312
392,072	0,03219
392,28	0,03266
392,489	0,03194
392,698	0,03227
392,906	0,02962
393,115	0,02652
393,324	0,02413
393,532	0,02262
393,741	0,02042
393,949	0,01508
394,158	0,01349
394,366	0,0122
394,575	0,00967
394,783	0,00919
394,992	0,0091
395,2	0,00997
395,409	0,00856
395,617	0,0051
395,826	0,00753
396,034	0,0094
396,243	0,01267
396,451	0,01523
396,66	0,01942
396,868	0,01902
397,076	0,01918
397,285	0,01553
397,493	0,01824
397,701	0,02072
397,91	0,02101
398,118	0,02142
398,326	0,02043
398,535	0,02029
398,743	0,02153
398,951	0,0181
399,159	0,01948
399,368	0,02301
399,576	0,02662
399,784	0,02536
399,992	0,02439
400,201	0,02563
400,409	0,02412
400,617	0,02596
400,825	0,02736
401,033	0,02574
401,241	0,02651
401,45	0,02692
401,658	0,02392
401,866	0,02602
402,074	0,02601
402,282	0,02601
402,49	0,02554
402,698	0,02552
402,906	0,02468
403,114	0,02344
403,322	0,02143
403,53	0,02278
403,738	0,022
403,946	0,02107
404,154	0,01837
404,362	0,01866
404,57	0,01704
404,778	0,01669
404,986	0,01766
405,194	0,01747
405,402	0,01747
405,609	0,01901
405,817	0,01767
406,025	0,02104
406,233	0,02323
406,441	0,02344
406,649	0,02094
406,856	0,02165
407,064	0,02414
407,272	0,02297
407,48	0,0225
407,687	0,02276
407,895	0,02403
408,103	0,02446
408,311	0,02179
408,518	0,02055
408,726	0,02166
408,934	0,02356
409,141	0,02345
409,349	0,01948
409,557	0,02084
409,764	0,02019
409,972	0,02046
410,18	0,01717
410,387	0,01753
410,595	0,01731
410,802	0,0169
411,01	0,01492
411,217	0,01439
411,425	0,01409
411,632	0,01622
411,84	0,01633
412,047	0,01513
412,255	0,01429
412,462	0,01777
412,67	0,01742
412,877	0,01694
413,085	0,01673
413,292	0,01747
413,499	0,01756
413,707	0,01823
413,914	0,01876
414,122	0,01691
414,329	0,01801
414,536	0,01825
414,744	0,01616
414,951	0,01606
415,158	0,01486
415,366	0,01447
415,573	0,01548
415,78	0,01593
415,987	0,0146
416,195	0,01567
416,402	0,01472
416,609	0,01721
416,816	0,01715
417,023	0,0189
417,231	0,01961
417,438	0,02082
417,645	0,02152
417,852	0,01984
418,059	0,02041
418,266	0,01989
418,473	0,01904
418,68	0,02157
418,888	0,01975
419,095	0,02025
419,302	0,0204
419,509	0,01963
419,716	0,02074
419,923	0,02043
420,13	0,02113
420,337	0,02049
420,544	0,02139
420,751	0,02183
420,958	0,0221
421,165	0,02298
421,371	0,02224
421,578	0,02147
421,785	0,0199
421,992	0,01866
422,199	0,01995
422,406	0,02107
422,613	0,02117
422,82	0,02222
423,026	0,02008
423,233	0,01967
423,44	0,01815
423,647	0,01868
423,854	0,01788
424,06	0,01856
424,267	0,01749
424,474	0,01718
424,681	0,01702
424,887	0,01725
425,094	0,01659
425,301	0,01911
425,507	0,01758
425,714	0,01802
425,921	0,01738
426,127	0,01736
426,334	0,018
426,54	0,01845
426,747	0,01788
426,954	0,01641
427,16	0,01519
427,367	0,01511
427,573	0,01532
427,78	0,01656
427,986	0,01677
428,193	0,01723
428,399	0,0186
428,606	0,01808
428,812	0,02011
429,019	0,01954
429,225	0,01978
429,432	0,02214
429,638	0,02239
429,845	0,02021
430,051	0,02051
430,257	0,01958
430,464	0,01994
430,67	0,01914
430,876	0,02024
431,083	0,01949
431,289	0,02007
431,495	0,02107
431,702	0,02026
431,908	0,01849
432,114	0,01815
432,32	0,01722
432,527	0,01829
432,733	0,01788
432,939	0,01724
433,145	0,01712
433,351	0,01615
433,558	0,01729
433,764	0,01713
433,97	0,01587
434,176	0,01696
434,382	0,01948
434,588	0,01965
434,794	0,01823
435,001	0,01841
435,207	0,01812
435,413	0,01728
435,619	0,01793
435,825	0,01686
436,031	0,01643
436,237	0,01779
436,443	0,01931
436,649	0,0179
436,855	0,01786
437,061	0,01892
437,267	0,01945
437,473	0,02057
437,679	0,02168
437,884	0,02062
438,09	0,02015
438,296	0,0197
438,502	0,01805
438,708	0,01728
438,914	0,01742
439,12	0,01788
439,325	0,01884
439,531	0,01928
439,737	0,01883
439,943	0,01802
440,149	0,01891
440,354	0,02023
440,56	0,02034
440,766	0,0209
440,972	0,02095
441,177	0,02135
441,383	0,02172
441,589	0,0216
441,794	0,02116
442	0,02173
442,206	0,02325
442,411	0,0225
442,617	0,02188
442,822	0,02285
443,028	0,02318
443,234	0,02429
443,439	0,02448
443,645	0,02395
443,85	0,02349
444,056	0,02363
444,261	0,02405
444,467	0,02386
444,672	0,02526
444,878	0,0256
445,083	0,02592
445,289	0,02632
445,494	0,02576
445,699	0,02651
445,905	0,02688
446,11	0,02732
446,316	0,02744
446,521	0,02699
446,726	0,02673
446,932	0,02611
447,137	0,02681
447,342	0,02652
447,548	0,02579
447,753	0,02563
447,958	0,02554
448,164	0,02534
448,369	0,02505
448,574	0,02472
448,779	0,02567
448,984	0,0252
449,19	0,0259
449,395	0,02553
449,6	0,02601
449,805	0,02661
450,01	0,02677
450,215	0,02603
450,421	0,02692
450,626	0,02736
450,831	0,02738
451,036	0,02698
451,241	0,02843
451,446	0,02828
451,651	0,02838
451,856	0,02838
452,061	0,02895
452,266	0,02953
452,471	0,03009
452,676	0,02996
452,881	0,03021
453,086	0,03137
453,291	0,03154
453,496	0,03032
453,701	0,03097
453,906	0,03107
454,111	0,03101
454,316	0,03116
454,52	0,03105
454,725	0,03071
454,93	0,03155
455,135	0,03193
455,34	0,03202
455,545	0,03249
455,749	0,03293
455,954	0,03276
456,159	0,0335
456,364	0,03466
456,568	0,03442
456,773	0,03488
456,978	0,03589
457,182	0,03544
457,387	0,03586
457,592	0,0348
457,796	0,03444
458,001	0,03528
458,206	0,03567
458,41	0,03528
458,615	0,03421
458,82	0,0345
459,024	0,03493
459,229	0,03495
459,433	0,03529
459,638	0,03485
459,842	0,03612
460,047	0,03608
460,251	0,03571
460,456	0,03594
460,66	0,03647
460,865	0,03674
461,069	0,03751
461,274	0,03756
461,478	0,03731
461,682	0,03735
461,887	0,03832
462,091	0,03858
462,296	0,03934
462,5	0,04005
462,704	0,04001
462,909	0,03993
463,113	0,04062
463,317	0,04059
463,522	0,04116
463,726	0,04207
463,93	0,04231
464,134	0,0427
464,339	0,04257
464,543	0,04296
464,747	0,04332
464,951	0,04376
465,155	0,04435
465,36	0,04485
465,564	0,04462
465,768	0,0443
465,972	0,04539
466,176	0,04603
466,38	0,04604
466,584	0,04672
466,788	0,04705
466,993	0,04721
467,197	0,04745
467,401	0,04769
467,605	0,04791
467,809	0,0491
468,013	0,05026
468,217	0,04961
468,421	0,04978
468,625	0,04968
468,829	0,04966
469,033	0,04983
469,236	0,05116
469,44	0,05133
469,644	0,05113
469,848	0,05143
470,052	0,05167
470,256	0,05103
470,46	0,05117
470,664	0,05126
470,867	0,05192
471,071	0,05264
471,275	0,05283
471,479	0,05224
471,683	0,05279
471,886	0,05355
472,09	0,054
472,294	0,05437
472,497	0,05515
472,701	0,05562
472,905	0,05614
473,109	0,05696
473,312	0,05703
473,516	0,05771
473,719	0,05809
473,923	0,0585
474,127	0,05899
474,33	0,05898
474,534	0,05929
474,737	0,05974
474,941	0,06023
475,145	0,06034
475,348	0,06056
475,552	0,06121
475,755	0,06188
475,959	0,06291
476,162	0,06353
476,366	0,064
476,569	0,0646
476,772	0,065
476,976	0,06534
477,179	0,06633
477,383	0,06698
477,586	0,06715
477,789	0,06765
477,993	0,06777
478,196	0,06783
478,399	0,06823
478,603	0,06888
478,806	0,06947
479,009	0,06976
479,213	0,07006
479,416	0,06982
479,619	0,07092
479,822	0,07167
480,026	0,07246
480,229	0,07293
480,432	0,07357
480,635	0,07404
480,838	0,07449
481,041	0,0746
481,245	0,07531
481,448	0,07563
481,651	0,07614
481,854	0,07611
482,057	0,07644
482,26	0,07705
482,463	0,07792
482,666	0,07855
482,869	0,07937
483,072	0,07974
483,275	0,08051
483,478	0,08087
483,681	0,08206
483,884	0,08295
484,087	0,08384
484,29	0,08457
484,493	0,08492
484,696	0,08535
484,899	0,08576
485,102	0,08621
485,305	0,08685
485,508	0,08783
485,71	0,08867
485,913	0,08893
486,116	0,08951
486,319	0,09005
486,522	0,09079
486,725	0,09128
486,927	0,09203
487,13	0,09277
487,333	0,0937
487,536	0,09441
487,738	0,09495
487,941	0,09543
488,144	0,09662
488,346	0,09744
488,549	0,09793
488,752	0,09852
488,954	0,09942
489,157	0,09968
489,359	0,10031
489,562	0,10047
489,765	0,10093
489,967	0,10166
490,17	0,10268
490,372	0,10303
490,575	0,10334
490,777	0,10421
490,98	0,10462
491,182	0,10492
491,385	0,10594
491,587	0,1065
491,79	0,10737
491,992	0,10805
492,195	0,10862
492,397	0,1092
492,599	0,10974
492,802	0,11039
493,004	0,11113
493,207	0,11181
493,409	0,11269
493,611	0,11345
493,814	0,11435
494,016	0,11496
494,218	0,11552
494,42	0,11628
494,623	0,11694
494,825	0,11795
495,027	0,11879
495,229	0,11943
495,432	0,1204
495,634	0,12142
495,836	0,12219
496,038	0,12279
496,24	0,12354
496,442	0,12463
496,645	0,12528
496,847	0,12609
497,049	0,12665
497,251	0,12748
497,453	0,12842
497,655	0,12932
497,857	0,13019
498,059	0,13124
498,261	0,13228
498,463	0,13321
498,665	0,13419
498,867	0,13504
499,069	0,13578
499,271	0,13664
499,473	0,13766
499,675	0,13832
499,877	0,13907
500,079	0,13955
500,281	0,14016
500,482	0,14119
500,684	0,14221
500,886	0,14295
501,088	0,14408
501,29	0,14512
501,492	0,14623
501,693	0,14709
501,895	0,14826
502,097	0,14911
502,299	0,15012
502,5	0,15092
502,702	0,15159
502,904	0,15261
503,106	0,15365
503,307	0,15417
503,509	0,15503
503,711	0,15618
503,912	0,15707
504,114	0,15788
504,315	0,15892
504,517	0,16007
504,719	0,16128
504,92	0,16227
505,122	0,16298
505,323	0,16384
505,525	0,16504
505,726	0,16627
505,928	0,16702
506,129	0,16824
506,331	0,16928
506,532	0,17043
506,734	0,17122
506,935	0,17205
507,137	0,17282
507,338	0,17396
507,539	0,17499
507,741	0,17624
507,942	0,17714
508,143	0,17822
508,345	0,17936
508,546	0,18034
508,747	0,18134
508,949	0,18276
509,15	0,18375
509,351	0,18499
509,553	0,18612
509,754	0,18731
509,955	0,18814
510,156	0,18934
510,357	0,1903
510,559	0,19128
510,76	0,19254
510,961	0,19382
511,162	0,1948
511,363	0,19606
511,564	0,19726
511,766	0,19843
511,967	0,19967
512,168	0,201
512,369	0,20208
512,57	0,20337
512,771	0,20469
512,972	0,20591
513,173	0,20715
513,374	0,20831
513,575	0,20977
513,776	0,21125
513,977	0,21232
514,178	0,21341
514,379	0,21474
514,58	0,21603
514,781	0,21759
514,981	0,21878
515,182	0,21979
515,383	0,22116
515,584	0,2227
515,785	0,22385
515,986	0,22485
516,187	0,22641
516,387	0,22758
516,588	0,22893
516,789	0,23015
516,99	0,23124
517,19	0,23261
517,391	0,23413
517,592	0,23527
517,793	0,23621
517,993	0,23741
518,194	0,23877
518,395	0,23983
518,595	0,24123
518,796	0,24231
518,996	0,24349
519,197	0,24451
519,398	0,24584
519,598	0,24736
519,799	0,24856
519,999	0,25
520,2	0,25139
520,4	0,25278
520,601	0,25442
520,801	0,25588
521,002	0,25735
521,202	0,25878
521,403	0,26044
521,603	0,26163
521,804	0,2624
522,004	0,26378
522,204	0,26509
522,405	0,26638
522,605	0,26766
522,806	0,26868
523,006	0,26979
523,206	0,27117
523,407	0,27256
523,607	0,27382
523,807	0,27507
524,007	0,27657
524,208	0,27782
524,408	0,27902
524,608	0,28053
524,808	0,28173
525,009	0,28306
525,209	0,28441
525,409	0,28562
525,609	0,28686
525,809	0,2882
526,009	0,28938
526,209	0,29083
526,41	0,29203
526,61	0,29362
526,81	0,29475
527,01	0,29577
527,21	0,29722
527,41	0,29874
527,61	0,30008
527,81	0,30134
528,01	0,30228
528,21	0,30378
528,41	0,30468
528,61	0,30587
528,81	0,30691
529,01	0,30814
529,21	0,30962
529,41	0,3108
529,609	0,31186
529,809	0,31293
530,009	0,31422
530,209	0,31546
530,409	0,31652
530,609	0,31801
530,808	0,3192
531,008	0,32018
531,208	0,32108
531,408	0,32231
531,608	0,32319
531,807	0,32426
532,007	0,32544
532,207	0,32632
532,406	0,32744
532,606	0,32869
532,806	0,32966
533,005	0,33064
533,205	0,33195
533,405	0,33314
533,604	0,33409
533,804	0,33526
534,003	0,33613
534,203	0,337
534,403	0,33795
534,602	0,33903
534,802	0,3398
535,001	0,34076
535,201	0,34193
535,4	0,34255
535,6	0,3436
535,799	0,34463
535,998	0,34551
536,198	0,34652
536,397	0,34773
536,597	0,34884
536,796	0,34979
536,995	0,35074
537,195	0,35173
537,394	0,35252
537,594	0,35366
537,793	0,35456
537,992	0,35563
538,191	0,35656
538,391	0,35763
538,59	0,35848
538,789	0,35929
538,988	0,35984
539,188	0,36069
539,387	0,36171
539,586	0,36256
539,785	0,3634
539,984	0,36426
540,184	0,36506
540,383	0,36613
540,582	0,36683
540,781	0,36765
540,98	0,36862
541,179	0,36979
541,378	0,37066
541,577	0,37114
541,776	0,37205
541,975	0,37293
542,174	0,37344
542,373	0,37397
542,572	0,37441
542,771	0,37505
542,97	0,37565
543,169	0,37617
543,368	0,37647
543,567	0,37699
543,766	0,3777
543,965	0,37836
544,164	0,37899
544,362	0,38008
544,561	0,38103
544,76	0,38183
544,959	0,38257
545,158	0,38319
545,356	0,38378
545,555	0,38463
545,754	0,38534
545,953	0,38597
546,151	0,3864
546,35	0,38696
546,549	0,38697
546,748	0,38701
546,946	0,38739
547,145	0,38783
547,344	0,38816
547,542	0,38861
547,741	0,38921
547,939	0,38953
548,138	0,38978
548,337	0,39003
548,535	0,39027
548,734	0,3907
548,932	0,39113
549,131	0,39144
549,329	0,39196
549,528	0,39244
549,726	0,39281
549,925	0,39317
550,123	0,3937
550,322	0,39437
550,52	0,39497
550,718	0,39551
550,917	0,39606
551,115	0,39661
551,313	0,39728
551,512	0,39757
551,71	0,39802
551,908	0,39858
552,107	0,39891
552,305	0,39937
552,503	0,3996
552,702	0,3998
552,9	0,40003
553,098	0,40048
553,296	0,40075
553,495	0,40099
553,693	0,40125
553,891	0,40169
554,089	0,40188
554,287	0,40234
554,485	0,40273
554,683	0,40305
554,882	0,40355
555,08	0,40415
555,278	0,40449
555,476	0,40498
555,674	0,40533
555,872	0,40582
556,07	0,40612
556,268	0,40665
556,466	0,407
556,664	0,40728
556,862	0,40791
557,06	0,40861
557,258	0,40898
557,456	0,4098
557,654	0,41046
557,851	0,41094
558,049	0,41163
558,247	0,41251
558,445	0,4131
558,643	0,41355
558,841	0,41425
559,039	0,41492
559,236	0,41543
559,434	0,41608
559,632	0,41637
559,83	0,41687
560,027	0,41751
560,225	0,41795
560,423	0,4183
560,62	0,41875
560,818	0,41939
561,016	0,41993
561,213	0,42039
561,411	0,4208
561,609	0,42119
561,806	0,42177
562,004	0,4223
562,202	0,42288
562,399	0,42352
562,597	0,42428
562,794	0,42513
562,992	0,42582
563,189	0,42656
563,387	0,42744
563,584	0,42853
563,782	0,42948
563,979	0,43016
564,177	0,43098
564,374	0,43189
564,571	0,43278
564,769	0,43346
564,966	0,43409
565,164	0,43499
565,361	0,43574
565,558	0,43636
565,756	0,43696
565,953	0,43781
566,15	0,43872
566,347	0,43968
566,545	0,44052
566,742	0,44146
566,939	0,44233
567,136	0,44325
567,334	0,44421
567,531	0,44508
567,728	0,44613
567,925	0,44725
568,122	0,44827
568,319	0,44926
568,517	0,45022
568,714	0,45122
568,911	0,45224
569,108	0,4536
569,305	0,45483
569,502	0,4558
569,699	0,45701
569,896	0,458
570,093	0,45893
570,29	0,46007
570,487	0,46129
570,684	0,46248
570,881	0,46377
571,078	0,46493
571,275	0,46579
571,472	0,46703
571,669	0,46815
571,866	0,46929
572,062	0,47055
572,259	0,47185
572,456	0,47294
572,653	0,47402
572,85	0,47532
573,047	0,47643
573,243	0,47764
573,44	0,47888
573,637	0,48003
573,834	0,48136
574,03	0,48256
574,227	0,48391
574,424	0,48535
574,62	0,48668
574,817	0,48826
575,014	0,48941
575,21	0,49079
575,407	0,49205
575,604	0,49352
575,8	0,49482
575,997	0,49625
576,193	0,49745
576,39	0,49891
576,586	0,5
576,783	0,50132
576,979	0,50258
577,176	0,50409
577,372	0,50514
577,569	0,50656
577,765	0,50787
577,962	0,50926
578,158	0,5104
578,355	0,51188
578,551	0,51303
578,747	0,51413
578,944	0,51535
579,14	0,51653
579,336	0,51783
579,533	0,51916
579,729	0,52046
579,925	0,52159
580,122	0,5228
580,318	0,52414
580,514	0,52535
580,71	0,52653
580,906	0,52816
581,103	0,52967
581,299	0,53091
581,495	0,53182
581,691	0,53312
581,887	0,53425
582,084	0,53533
582,28	0,53643
582,476	0,53751
582,672	0,53872
582,868	0,53971
583,064	0,54077
583,26	0,54155
583,456	0,54229
583,652	0,54315
583,848	0,54423
584,044	0,54506
584,24	0,54592
584,436	0,54661
584,632	0,54741
584,828	0,54805
585,024	0,54884
585,22	0,54926
585,416	0,54995
585,611	0,55076
585,807	0,55144
586,003	0,55188
586,199	0,55239
586,395	0,55302
586,591	0,55366
586,786	0,55422
586,982	0,55457
587,178	0,55521
587,374	0,55552
587,569	0,5558
587,765	0,55608
587,961	0,55654
588,156	0,55681
588,352	0,55694
588,548	0,55705
588,743	0,55726
588,939	0,55729
589,135	0,55749
589,33	0,55728
589,526	0,55753
589,721	0,55747
589,917	0,55739
590,112	0,55706
590,308	0,55668
590,503	0,55655
590,699	0,55615
590,894	0,55576
591,09	0,55548
591,285	0,55494
591,481	0,55454
591,676	0,5541
591,872	0,55367
592,067	0,55308
592,262	0,55275
592,458	0,55213
592,653	0,55159
592,848	0,55099
593,044	0,55026
593,239	0,54937
593,434	0,54859
593,629	0,54768
593,825	0,54642
594,02	0,54529
594,215	0,54428
594,41	0,54303
594,606	0,54197
594,801	0,54082
594,996	0,53952
595,191	0,53824
595,386	0,53677
595,581	0,53516
595,777	0,53376
595,972	0,53237
596,167	0,53092
596,362	0,52936
596,557	0,52786
596,752	0,5263
596,947	0,52447
597,142	0,52263
597,337	0,52076
597,532	0,51912
597,727	0,51735
597,922	0,51545
598,117	0,51356
598,312	0,51135
598,507	0,50923
598,701	0,50687
598,896	0,50479
599,091	0,50249
599,286	0,50043
599,481	0,49816
599,676	0,49573
599,87	0,49347
600,065	0,49094
600,26	0,48869
600,455	0,48642
600,65	0,48387
600,844	0,48134
601,039	0,47864
601,234	0,47634
601,428	0,47389
601,623	0,47122
601,818	0,46864
602,012	0,46605
602,207	0,46342
602,402	0,46064
602,596	0,45792
602,791	0,45528
602,985	0,45284
603,18	0,45004
603,374	0,44697
603,569	0,44387
603,763	0,44117
603,958	0,43826
604,152	0,43544
604,347	0,43254
604,541	0,42953
604,736	0,42651
604,93	0,42346
605,125	0,42017
605,319	0,41711
605,513	0,41414
605,708	0,41113
605,902	0,40797
606,096	0,40479
606,291	0,40162
606,485	0,3985
606,679	0,39551
606,874	0,39244
607,068	0,38945
607,262	0,38649
607,456	0,3836
607,65	0,3806
607,845	0,3775
608,039	0,37451
608,233	0,37147
608,427	0,36828
608,621	0,36524
608,815	0,36215
609,01	0,35909
609,204	0,35599
609,398	0,35298
609,592	0,34976
609,786	0,3467
609,98	0,34387
610,174	0,34076
610,368	0,33779
610,562	0,3348
610,756	0,33174
610,95	0,32866
611,144	0,32545
611,338	0,32237
611,532	0,31913
611,726	0,31605
611,919	0,31287
612,113	0,30968
612,307	0,30652
612,501	0,30344
612,695	0,30033
612,889	0,29716
613,082	0,29406
613,276	0,29117
613,47	0,28819
613,664	0,28518
613,857	0,28212
614,051	0,27913
614,245	0,27609
614,439	0,27322
614,632	0,27025
614,826	0,2674
615,02	0,2645
615,213	0,26176
615,407	0,25892
615,6	0,25598
615,794	0,25316
615,988	0,25043
616,181	0,24758
616,375	0,24493
616,568	0,2421
616,762	0,23941
616,955	0,23669
617,149	0,23404
617,342	0,23124
617,536	0,22851
617,729	0,22603
617,923	0,22356
618,116	0,22101
618,309	0,2184
618,503	0,21579
618,696	0,2131
618,889	0,2105
619,083	0,20782
619,276	0,20535
619,469	0,20281
619,663	0,20035
619,856	0,19788
620,049	0,19544
620,242	0,19301
620,436	0,19062
620,629	0,18839
620,822	0,18615
621,015	0,18382
621,209	0,18165
621,402	0,17938
621,595	0,17711
621,788	0,17494
621,981	0,17266
622,174	0,17047
622,367	0,16836
622,56	0,16621
622,753	0,16393
622,946	0,16191
623,139	0,15987
623,332	0,15786
623,525	0,15573
623,718	0,15378
623,911	0,15178
624,104	0,14979
624,297	0,14775
624,49	0,14585
624,683	0,14395
624,876	0,14216
625,069	0,14021
625,262	0,1384
625,454	0,13648
625,647	0,13472
625,84	0,13279
626,033	0,13106
626,226	0,12934
626,418	0,12763
626,611	0,12593
626,804	0,12424
626,997	0,12243
627,189	0,12082
627,382	0,11909
627,575	0,11762
627,767	0,11615
627,96	0,11467
628,153	0,11311
628,345	0,11155
628,538	0,11009
628,731	0,10859
628,923	0,10719
629,116	0,10588
629,308	0,1044
629,501	0,10305
629,693	0,10173
629,886	0,10028
630,078	0,09891
630,271	0,09753
630,463	0,09615
630,656	0,09484
630,848	0,09344
631,04	0,09212
631,233	0,09076
631,425	0,08955
631,617	0,08826
631,81	0,08682
632,002	0,0856
632,194	0,08444
632,387	0,08331
632,579	0,08216
632,771	0,08093
632,964	0,07992
633,156	0,07876
633,348	0,07769
633,54	0,07658
633,732	0,07556
633,925	0,07459
634,117	0,0737
634,309	0,07264
634,501	0,07154
634,693	0,07051
634,885	0,06961
635,077	0,06854
635,269	0,06764
635,462	0,06672
635,654	0,06574
635,846	0,06487
636,038	0,06389
636,23	0,06284
636,422	0,06198
636,614	0,06113
636,806	0,06034
636,997	0,05956
637,189	0,05876
637,381	0,05794
637,573	0,05709
637,765	0,05633
637,957	0,05545
638,149	0,05479
638,341	0,05414
638,532	0,05341
638,724	0,05268
638,916	0,052
639,108	0,0511
639,299	0,05043
639,491	0,04963
639,683	0,04906
639,875	0,04844
640,066	0,04787
640,258	0,0471
640,45	0,04634
640,641	0,04574
640,833	0,04512
641,025	0,04446
641,216	0,04385
641,408	0,04316
641,599	0,04263
641,791	0,04206
641,982	0,04147
642,174	0,04081
642,366	0,04036
642,557	0,03977
642,748	0,03902
642,94	0,03848
643,131	0,03785
643,323	0,03734
643,514	0,0368
643,706	0,03633
643,897	0,03576
644,088	0,0353
644,28	0,03483
644,471	0,03423
644,662	0,0337
644,854	0,03333
645,045	0,03288
645,236	0,03247
645,428	0,03211
645,619	0,03165
645,81	0,03112
646,001	0,0305
646,193	0,03001
646,384	0,02955
646,575	0,02919
646,766	0,02893
646,957	0,0286
647,148	0,02813
647,339	0,02782
647,531	0,02737
647,722	0,02707
647,913	0,02677
648,104	0,02661
648,295	0,02633
648,486	0,026
648,677	0,02554
648,868	0,02516
649,059	0,02481
649,25	0,02451
649,441	0,02418
649,632	0,02388
649,823	0,02357
650,013	0,02321
650,204	0,02281
650,395	0,02241
650,586	0,02225
650,777	0,02199
650,968	0,02165
651,159	0,02139
651,349	0,0211
651,54	0,02074
651,731	0,02045
651,922	0,02019
652,112	0,02
652,303	0,01978
652,494	0,01959
652,684	0,01914
652,875	0,01899
653,066	0,01881
653,256	0,01855
653,447	0,01838
653,638	0,01816
653,828	0,01794
654,019	0,01767
654,209	0,01749
654,4	0,0173
654,59	0,01709
654,781	0,01708
654,972	0,01687
655,162	0,01673
655,352	0,01647
655,543	0,01615
655,733	0,01601
655,924	0,01592
656,114	0,01571
656,305	0,01548
656,495	0,01532
656,685	0,01514
656,876	0,0149
657,066	0,01468
657,256	0,01451
657,447	0,01444
657,637	0,01434
657,827	0,01415
658,017	0,01393
658,208	0,01372
658,398	0,0135
658,588	0,01328
658,778	0,0131
658,968	0,01293
659,159	0,01285
659,349	0,01267
659,539	0,01243
659,729	0,01234
659,919	0,01223
660,109	0,01211
660,299	0,01217
660,489	0,0121
660,679	0,01197
660,869	0,01184
661,059	0,0117
661,249	0,01145
661,439	0,01131
661,629	0,01115
661,819	0,01103
662,009	0,01094
662,199	0,01077
662,389	0,01046
662,579	0,01037
662,769	0,0102
662,959	0,01002
663,149	0,01007
663,338	0,01006
663,528	0,00997
663,718	0,00997
663,908	0,00972
664,097	0,00946
664,287	0,00934
664,477	0,00937
664,667	0,00923
664,856	0,00921
665,046	0,00912
665,236	0,00892
665,425	0,00881
665,615	0,00867
665,805	0,00859
665,994	0,00869
666,184	0,00878
666,373	0,00874
666,563	0,00864
666,753	0,00857
666,942	0,00848
667,132	0,00836
667,321	0,00824
667,511	0,00814
667,7	0,00808
667,889	0,00786
668,079	0,00772
668,268	0,00753
668,458	0,0074
668,647	0,00725
668,836	0,00715
669,026	0,00708
669,215	0,00703
669,404	0,00706
669,594	0,00702
669,783	0,00694
669,972	0,00707
670,162	0,00695
670,351	0,00696
670,54	0,00691
670,729	0,00681
670,919	0,0068
671,108	0,0068
671,297	0,0068
671,486	0,0067
671,675	0,00662
671,864	0,00659
672,053	0,00644
672,243	0,00645
672,432	0,00636
672,621	0,00635
672,81	0,00632
672,999	0,00633
673,188	0,00639
673,377	0,00625
673,566	0,00617
673,755	0,00609
673,944	0,00603
674,133	0,00596
674,322	0,00597
674,51	0,00602
674,699	0,00596
674,888	0,00589
675,077	0,00576
675,266	0,00565
675,455	0,00571
675,644	0,00565
675,832	0,00563
676,021	0,00558
676,21	0,00562
676,399	0,00547
676,587	0,0053
676,776	0,00522
676,965	0,00526
677,153	0,00522
677,342	0,00509
677,531	0,00497
677,719	0,00492
677,908	0,00494
678,097	0,00492
678,285	0,00483
678,474	0,00481
678,662	0,00485
678,851	0,00483
679,039	0,00474
679,228	0,0047
679,416	0,00481
679,605	0,00483
679,793	0,00485
679,982	0,0048
680,17	0,00481
680,359	0,00484
680,547	0,00488
680,736	0,00484
680,924	0,00487
681,112	0,00486
681,301	0,00495
681,489	0,00477
681,677	0,00481
681,866	0,00476
682,054	0,00467
682,242	0,00457
682,43	0,00452
682,619	0,00431
682,807	0,00419
682,995	0,00413
683,183	0,004
683,371	0,00397
683,559	0,00396
683,748	0,0039
683,936	0,00386
684,124	0,00393
684,312	0,00391
684,5	0,00378
684,688	0,00394
684,876	0,00397
685,064	0,00393
685,252	0,00399
685,44	0,00385
685,628	0,00386
685,816	0,00381
686,004	0,00377
686,192	0,00362
686,38	0,00358
686,568	0,00362
686,756	0,0035
686,944	0,00349
687,131	0,00346
687,319	0,00353
687,507	0,00353
687,695	0,00346
687,883	0,00339
688,07	0,00345
688,258	0,00348
688,446	0,00339
688,634	0,00345
688,821	0,00341
689,009	0,00338
689,197	0,00345
689,384	0,00337
689,572	0,00335
689,76	0,00342
689,947	0,00346
690,135	0,00336
690,323	0,00339
690,51	0,00343
690,698	0,0033
690,885	0,00344
691,073	0,00343
691,26	0,0034
691,448	0,00337
691,635	0,00337
691,823	0,00335
692,01	0,00326
692,197	0,00322
692,385	0,00322
692,572	0,00325
692,76	0,00336
692,947	0,00334
693,134	0,00337
693,322	0,00325
693,509	0,00321
693,696	0,00311
693,884	0,00305
694,071	0,003
694,258	0,00305
694,445	0,00303
694,633	0,00301
694,82	0,00281
695,007	0,00275
695,194	0,00272
695,381	0,00274
695,568	0,00276
695,756	0,00287
695,943	0,00287
696,13	0,0029
696,317	0,00291
696,504	0,00286
696,691	0,00282
696,878	0,00289
697,065	0,00276
697,252	0,00274
697,439	0,0028
697,626	0,0028
697,813	0,00279
698	0,00268
698,187	0,00264
698,374	0,00262
698,561	0,00267
698,747	0,00263
698,934	0,00266
699,121	0,00276
699,308	0,00274
699,495	0,00267
699,682	0,00263
699,868	0,00253
700,055	0,00254
700,242	0,00252
700,429	0,00243
700,615	0,00226
700,802	0,00224
700,989	0,00223
701,175	0,00212
701,362	0,0022
701,549	0,00217
701,735	0,00218
701,922	0,00213
702,108	0,00218
702,295	0,00217
702,482	0,00225
702,668	0,00242
702,855	0,00237
703,041	0,00232
703,228	0,00238
703,414	0,00226
703,601	0,00227
703,787	0,00233
703,973	0,00231
704,16	0,00216
704,346	0,00216
704,533	0,00217
704,719	0,00214
704,905	0,0022
705,092	0,00223
705,278	0,00226
705,464	0,00228
705,65	0,00227
705,837	0,00221
706,023	0,00224
706,209	0,00237
706,395	0,00252
706,582	0,00243
706,768	0,00235
706,954	0,00247
707,14	0,00242
707,326	0,0024
707,512	0,00237
707,698	0,0024
707,885	0,00233
708,071	0,00234
708,257	0,00234
708,443	0,00226
708,629	0,00234
708,815	0,00239
709,001	0,00225
709,187	0,00219
709,373	0,00212
709,559	0,00212
709,745	0,00207
709,93	0,00201
710,116	0,00195
710,302	0,00197
710,488	0,00206
710,674	0,00198
710,86	0,00191
711,046	0,00195
711,231	0,00195
711,417	0,00187
711,603	0,00186
711,789	0,00193
711,974	0,00204
712,16	0,00201
712,346	0,00193
712,532	0,00184
712,717	0,00183
712,903	0,00177
713,089	0,00172
713,274	0,00171
713,46	0,00179
713,645	0,00177
713,831	0,0017
714,016	0,00163
714,202	0,00174
714,388	0,0019
714,573	0,00184
714,759	0,00182
714,944	0,0019
715,129	0,00188
715,315	0,00192
715,5	0,00181
715,686	0,00185
715,871	0,00182
716,057	0,0018
716,242	0,00186
716,427	0,00164
716,613	0,00157
716,798	0,00152
716,983	0,00147
717,168	0,00156
717,354	0,00168
717,539	0,00181
717,724	0,00178
717,909	0,0019
718,095	0,0019
718,28	0,00178
718,465	0,00186
718,65	0,00188
718,835	0,00186
719,02	0,0019
719,206	0,0018
719,391	0,00169
719,576	0,0015
719,761	0,00148
719,946	0,00144
720,131	0,00147
720,316	0,00147
720,501	0,00142
720,686	0,00154
720,871	0,00162
721,056	0,00162
721,241	0,0016
721,426	0,00157
721,61	0,00173
721,795	0,00173
721,98	0,00167
722,165	0,00173
722,35	0,00178
722,535	0,00177
722,719	0,00159
722,904	0,00156
723,089	0,00148
723,274	0,00145
723,458	0,00141
723,643	0,00135
723,828	0,00128
724,013	0,00124
724,197	0,00112
724,382	0,0011
724,567	0,00114
724,751	0,00122
724,936	0,00123
725,12	0,0012
725,305	0,00126
725,489	0,00132
725,674	0,00133
725,859	0,00136
726,043	0,00139
726,228	0,00143
726,412	0,00135
726,596	0,00137
726,781	0,00134
726,965	0,00131
727,15	0,00145
727,334	0,00135
727,518	0,00126
727,703	0,00125
727,887	0,00127
728,072	0,0013
728,256	0,00126
728,44	0,00127
728,624	0,00127
728,809	0,00122
728,993	0,00125
729,177	0,00121
729,361	0,0013
729,546	0,00132
729,73	0,00136
729,914	0,0013
730,098	0,0013
730,282	0,00126
730,466	0,00121
730,65	0,00119
730,834	0,00122
731,019	0,0012
731,203	0,00116
731,387	0,00114
731,571	0,00105
731,755	0,001
731,939	0,00103
732,123	0,00089
732,306	0,0009
732,49	0,00098
732,674	0,00095
732,858	0,00096
733,042	0,0009
733,226	0,00094
733,41	0,00097
733,594	0,00102
733,778	0,00099
733,961	0,00112
734,145	0,00122
734,329	0,00134
734,513	0,00129
734,696	0,00125
734,88	0,00129
735,064	0,00134
735,247	0,00121
735,431	0,00114
735,615	0,00115
735,798	0,00117
735,982	0,00117
736,166	0,00116
736,349	0,00098
736,533	0,00107
736,716	0,00113
736,9	0,00111
737,083	0,00105
737,267	0,00103
737,45	0,00103
737,634	0,00107
737,817	0,00106
738,001	0,00095
738,184	0,00095
738,368	0,00105
738,551	0,00092
738,734	0,00093
738,918	0,00094
739,101	0,00105
739,284	0,00106
739,468	0,00104
739,651	0,00107
739,834	0,00108
740,018	0,00109
740,201	0,00102
740,384	0,00104
740,567	0,0012
740,75	0,00122
740,934	0,00123
741,117	0,00113
741,3	0,00122
741,483	0,00125
741,666	0,00119
741,849	0,0012
742,032	0,0012
742,215	0,00123
742,399	0,0013
742,582	0,00113
742,765	0,00107
742,948	0,00101
743,131	0,00111
743,314	0,00099
743,496	0,00099
743,679	0,00106
743,862	0,00106
744,045	0,00111
744,228	0,00109
744,411	0,00095
744,594	0,00106
744,777	0,00107
744,959	0,00111
745,142	0,00108
745,325	0,00116
745,508	0,00111
745,691	0,00117
745,873	0,00113
746,056	0,00113
746,239	0,00111
746,421	0,00122
746,604	0,00118
746,787	0,00124
746,969	0,00123
747,152	0,00106
747,335	0,00097
747,517	0,00107
747,7	0,00106
747,882	0,0011
748,065	0,00095
748,247	0,00107
748,43	0,00093
748,612	0,00089
748,795	0,00085
748,977	0,00079
749,16	0,00087
749,342	0,00098
749,524	0,00087
749,707	0,00079
749,889	0,00076
750,072	0,00075
750,254	0,00066
750,436	0,00073
750,619	0,00073
750,801	0,00068
750,983	0,00059
751,165	0,00063
751,348	0,0006
751,53	0,00064
751,712	0,00058
751,894	0,00059
752,076	0,00081
752,259	0,00081
752,441	0,00074
752,623	0,0008
752,805	0,00075
752,987	0,00083
753,169	0,00086
753,351	0,00082
753,533	0,00072
753,715	0,00075
753,897	0,00062
754,079	0,00054
754,261	0,00046
754,443	0,00047
754,625	0,00053
754,807	0,00059
754,989	0,00066
755,171	0,00075
755,353	0,00081
755,534	0,00082
755,716	0,00083
755,898	0,00092
756,08	0,00089
756,262	0,00091
756,443	0,00074
756,625	0,00065
756,807	0,00064
756,989	0,0005
757,17	0,00039
757,352	0,00044
757,534	0,00058
757,715	0,00054
757,897	0,00056
758,079	0,00054
758,26	0,00054
758,442	0,00074
758,623	0,00064
758,805	0,00065
758,987	0,0007
759,168	0,00067
759,35	0,00061
759,531	0,00059
759,713	0,00057
759,894	0,00055
760,075	0,00054
760,257	0,00056
760,438	0,00051
760,62	0,00049
760,801	0,00054
760,982	0,00054
761,164	0,00049
761,345	0,00061
761,526	0,00063
761,708	0,00074
761,889	0,00079
762,07	0,00072
762,251	0,00085
762,433	0,00085
762,614	0,00096
762,795	0,00092
762,976	0,00092
763,157	0,00107
763,338	0,00087
763,52	0,00077
763,701	0,00066
763,882	0,0006
764,063	0,0007
764,244	0,00062
764,425	0,00066
764,606	0,00061
764,787	0,00053
764,968	0,0005
765,149	0,00034
765,33	0,00042
765,511	0,00046
765,692	0,00043
765,873	0,00052
766,053	0,00033
766,234	0,00037
766,415	0,00039
766,596	0,00036
766,777	0,00037
766,958	0,00034
767,138	0,00048
767,319	0,00048
767,5	0,00045
767,681	0,00045
767,861	0,00045
768,042	0,0006
768,223	0,00056
768,403	0,00055
768,584	0,00068
768,765	0,00072
768,945	0,00074
769,126	0,00066
769,307	0,0007
769,487	0,00068
769,668	0,00075
769,848	0,00064
770,029	0,00064
770,209	0,00055
770,39	0,00052
770,57	0,00053
770,751	0,00048
770,931	0,00039
771,111	0,00029
771,292	0,00028
771,472	0,00031
771,653	0,00029
771,833	0,00029
772,013	0,00021
772,194	0,00034
772,374	0,0003
772,554	0,00024
772,734	0,00029
772,915	0,00039
773,095	0,00047
773,275	0,00046
773,455	0,0005
773,635	0,00046
773,816	0,0005
773,996	0,00056
774,176	0,00053
774,356	0,00046
774,536	0,0005
774,716	0,00044
774,896	0,00027
775,076	0,00021
775,256	0,00021
775,436	0,00023
775,616	0,00029
775,796	0,00037
775,976	0,00035
776,156	0,00031
776,336	0,00045
776,516	0,0003
776,696	0,00027
776,876	0,00047
777,056	0,00052
777,235	0,00044
777,415	0,00043
777,595	0,00034
777,775	0,00025
777,955	0,00024
778,134	0,00021
778,314	0,00018
778,494	0,00032
778,674	0,00037
778,853	0,00023
779,033	0,00018
779,213	0,00021
779,392	0,00021
779,572	0,00027
779,751	0,00017
779,931	0,00024
780,111	0,00019
780,29	0,00009
780,47	-0,00002
780,649	-0,00009
780,829	-0
781,008	0,00013
781,188	0,00021
781,367	0,00024
781,546	0,00026
781,726	0,00026
781,905	0,00025
782,085	0,00032
782,264	0,00037
782,443	0,00049
782,623	0,00044
782,802	0,00049
782,981	0,00041
783,161	0,00036
783,34	0,0003
783,519	0,00031
783,698	0,00048
783,878	0,00047
784,057	0,00041
784,236	0,00047
784,415	0,00048
784,594	0,00061
784,773	0,00048
784,952	0,00051
785,132	0,00056
785,311	0,00064
785,49	0,00059
785,669	0,00045
785,848	0,00044
786,027	0,00049
786,206	0,00048
786,385	0,00046
786,564	0,00046
786,743	0,00051
786,922	0,00063
787,1	0,00054
787,279	0,00044
787,458	0,0005
787,637	0,00065
787,816	0,00072
787,995	0,00069
788,174	0,00067
788,352	0,0007
788,531	0,00068
788,71	0,00071
788,889	0,00065
789,067	0,00059
789,246	0,00059
789,425	0,0006
789,603	0,00043
789,782	0,00035
789,961	0,00036
790,139	0,0005
790,318	0,00035
790,496	0,00044
790,675	0,0005
790,853	0,00049
791,032	0,00057
791,211	0,00062
791,389	0,00056
791,568	0,00073
791,746	0,00079
791,924	0,00087
792,103	0,00069
792,281	0,0008
792,46	0,00086
792,638	0,00082
792,816	0,00078
792,995	0,00079
793,173	0,00078
793,351	0,00084
793,53	0,00079
793,708	0,00078
793,886	0,0008
794,064	0,00085
794,243	0,00088
794,421	0,00065
794,599	0,00062
794,777	0,00064
794,955	0,00056
795,133	0,00059
795,312	0,00053
795,49	0,00053
795,668	0,00045
795,846	0,00044
796,024	0,00053
796,202	0,00051
796,38	0,00065
796,558	0,00065
796,736	0,00053
796,914	0,00055
797,092	0,0005
797,27	0,00053
797,448	0,00047
797,626	0,00046
797,803	0,00037
797,981	0,00023
798,159	0,00022
798,337	0,00018
798,515	0,00014
798,693	0,00021
798,87	0,00013
799,048	0,00008
799,226	0,0001
799,404	0,00001
799,581	-0,00004
799,759	-0,00016
799,937	-0,00014
800,114	-0,0002
800,292	-0,0003
800,469	-0,00017
800,647	-0,00027
800,825	-0,00019
801,002	-0,00023
801,18	-0,00037
801,357	-0,00037
801,535	-0,00035
801,712	-0,00027
801,89	-0,0002
802,067	-0,00015
802,245	-0,00021
802,422	-0,00029
802,6	-0,00017
802,777	-0,00013
802,954	-0,0001
803,132	0,00012
803,309	0,00013
803,486	0,0002
803,664	0,00032
803,841	0,00043
804,018	0,00047
804,195	0,0006
804,373	0,00058
804,55	0,0006
804,727	0,00047
804,904	0,0005
805,081	0,00043
805,259	0,00046
805,436	0,00036
805,613	0,0003
805,79	0,00023
805,967	0,00016
806,144	0,00002
806,321	0,00001
806,498	0,00005
806,675	0,00017
806,852	0,00016
807,029	0
807,206	0,00003
807,383	0,00013
807,56	0,00015
807,737	0,00008
807,914	0,00008
808,091	0,0002
808,268	0,00029
808,444	0,00023
808,621	0,00022
808,798	0,00003
808,975	0,00013
809,152	0,00006
809,328	-0
809,505	-0,00001
809,682	-0,00014
809,858	-0,00017
810,035	-0,00016
810,212	-0,00035
810,388	-0,00038
810,565	-0,00021
810,742	-0,00005
810,918	-0,00005
811,095	0,00001
811,271	-0,00009
811,448	-0,00009
811,625	0,00002
811,801	0,00005
811,978	0,00013
812,154	0,00016
812,33	0,00025
812,507	0,00018
812,683	0,00021
812,86	0,00021
813,036	0,00027
813,212	0,00043
813,389	0,00037
813,565	0,00017
813,741	0,00029
813,918	0,00024
814,094	0,00039
814,27	0,00031
814,447	0,00029
814,623	0,00026
814,799	0,00033
814,975	0,00029
815,151	0,00019
815,328	0,00022
815,504	0,00036
815,68	0,0002
815,856	0,00037
816,032	0,00043
816,208	0,00045
816,384	0,00026
816,56	0,00028
816,736	0,00026
816,912	0,00027
817,088	0,00035
817,264	0,00037
817,44	0,00031
817,616	0,00029
817,792	-0,00015
817,968	-0,00017
818,144	-0,00017
818,32	-0,00007
818,495	-0,00005
818,671	-0,0001
818,847	-0,00011
819,023	-0,00003
819,199	-0,00005
819,374	0,00016
819,55	0,00018
819,726	0,00041
819,902	0,00025
820,077	0,00027
820,253	0,0003
820,429	0,00026
820,604	0,00047
820,78	0,00052
820,956	0,00028
821,131	0,00018
821,307	0,00017
821,482	0,00017
821,658	0,00031
821,833	0,00028
822,009	0,00015
822,184	0,00005
822,36	0,00012
822,535	-0,00004
822,711	-0,00017
822,886	0,00002
823,061	-0,00004
823,237	-0,0001
823,412	-0,00006
823,587	-0,00022
823,763	-0,00027
823,938	-0,00021
824,113	-0,00017
824,289	-0,00029
824,464	-0,00023
824,639	-0,00021
824,814	-0,00022
824,99	-0,0002
825,165	-0,00022
825,34	-0,00018
825,515	-0,00017
825,69	0,00007
825,865	0,00008
826,04	0,00029
826,215	0,00044
826,39	0,00052
826,566	0,00051
826,741	0,00054
826,916	0,00073
827,091	0,0007
827,265	0,00064
827,44	0,0006
827,615	0,00045
827,79	0,00026
827,965	0,00005
828,14	0,00004
828,315	-0,00005
828,49	0,00003
828,665	-0,00005
828,839	-0,00016
829,014	-0,00021
829,189	-0,00031
829,364	-0,00018
829,538	-0,00013
829,713	0,00011
829,888	0,00009
830,063	0,00002
830,237	-0,00026
830,412	-0,00016
830,587	-0,00025
830,761	-0,0002
830,936	-0,0001
831,11	0
831,285	-0,00008
831,459	0,00003
831,634	-0,00019
831,809	-0,00005
831,983	-0,00019
832,157	-0
832,332	-0,00022
832,506	-0,00021
832,681	-0,00019
832,855	-0,00041
833,03	-0,00046
833,204	-0,00059
833,378	-0,00071
833,553	-0,00055
833,727	-0,00055
833,901	-0,00055
834,076	-0,00046
834,25	-0,00047
834,424	-0,0004
834,598	-0,00039
834,773	-0,00019
834,947	-0,00009
835,121	0,00011
835,295	0,00008
835,469	-0,00005
835,643	-0,00022
835,817	-0,00015
835,991	-0,0004
836,166	-0,00028
836,34	-0,00007
836,514	-0,00012
836,688	-0,00007
836,862	-0,00004
837,036	-0,0002
837,21	-0,00009
837,384	0,0001
837,557	0,00021
837,731	0,00024
837,905	0,00037
838,079	0,00023
838,253	-0,00021
838,427	-0,00027
838,601	-0,00034
838,774	-0,00044
838,948	-0,00035
839,122	-0,00042
839,296	-0,00041
839,469	-0,00034
839,643	-0,00042
839,817	-0,00046
839,991	-0,00046
840,164	-0,00024
840,338	-0,00036
840,512	-0,00028
840,685	-0,0001
840,859	-0,00014
841,032	-0,00014
841,206	-0,00026
841,379	-0,00028
841,553	-0,00006
841,726	0,00002
841,9	0,00015
842,073	0,00023
842,247	0,00034
842,42	0,00014
842,594	0,00005
842,767	0,00009
842,94	0,0001
843,114	0,00028
843,287	0,00026
843,46	0,00018
843,634	0,00013
843,807	0,00023
843,98	0,00011
844,154	0,00017
844,327	0,00024
844,5	0,00015
844,673	0,00034
844,846	0,00024
845,02	0,00019
845,193	-0,00001
845,366	-0,00016
845,539	-0,00018
845,712	-0,00022
845,885	-0,00032
846,058	-0,0004
846,231	-0,00041
846,404	-0,00041
846,577	-0,00048
846,75	-0,00033
846,923	-0,00036
847,096	-0,00019
847,269	0,00002
847,442	0,00019
847,615	0,00014
847,788	0,00031
847,961	0,0004
848,133	0,00053
848,306	0,00047
848,479	0,00034
848,652	0,00026
848,825	0,00014
848,997	0,00001
849,17	-0,00028
849,343	-0,0005
849,515	-0,00058
849,688	-0,0006
849,861	-0,00058
850,033	-0,00049
850,206	-0,00033
850,379	-0,00048
850,551	-0,0004
850,724	-0,00029
850,896	-0,00025
851,069	0,00006
851,241	0,00017
851,414	0,00026
851,586	0,00025
851,759	0,00024
851,931	0,00014
852,104	0,00001
852,276	0,0002
852,449	0,00013
852,621	0,00006
852,793	-0,00001
852,966	-0,00013
853,138	0,00007
853,31	0,00018
853,483	0,00031
853,655	0,00041
853,827	0,0002
853,999	0,00021
854,172	0,00011
854,344	0,00018
854,516	0,0003
854,688	0,00048
854,86	0,0004
855,032	0,00017
855,204	-0,00001
855,377	-0,00017
855,549	-0,00031
855,721	-0,00042
855,893	-0,0004
856,065	-0,00032
856,237	-0,00032
856,409	-0,00044
856,581	-0,00055
856,753	-0,00038
856,924	-0,00026
857,096	-0,00002
857,268	0,00018
857,44	-0,00002
857,612	0,00023
857,784	0,0001
857,956	0,00015
858,127	0,00002
858,299	0,00011
858,471	0,0002
858,643	0,0001
858,814	-0,00001
858,986	-0,00009
859,158	-0,0002
859,33	0,00002
859,501	-0,00015
859,673	-0,00016
859,844	-0,00008
860,016	-0,00014
860,188	-0,00014
860,359	-0,00003
860,531	-0,00012
860,702	-0,00009
860,874	-0,00032
861,045	-0,00027
861,217	-0,00039
861,388	-0,00009
861,56	0,0001
861,731	-0,0001
861,902	0,00006
862,074	0,00001
862,245	0,00009
862,417	0,00013
862,588	0,00009
862,759	0,00019
862,931	-0,00007
863,102	0,00022
863,273	0,00005
863,444	0,00005
863,616	0,00034
863,787	0,00034
863,958	0,00016
864,129	-0,00001
864,3	-0,00019
864,471	-0,00017
864,642	-0,00017
864,814	-0,00017
864,985	-0,00035
865,156	-0,00057
865,327	-0,00081
865,498	-0,00095
865,669	-0,00119
865,84	-0,00088
866,011	-0,0011
866,182	-0,00103
866,353	-0,00107
866,523	-0,00125
866,694	-0,00102
866,865	-0,00093
867,036	-0,00087
867,207	-0,00065
867,378	-0,00097
867,549	-0,00091
867,719	-0,00123
867,89	-0,00132
868,061	-0,00128
868,232	-0,00128
868,402	-0,00115
868,573	-0,00141
868,744	-0,00156
868,914	-0,0014
869,085	-0,00159
869,256	-0,00147
869,426	-0,00145
869,597	-0,00126
869,767	-0,00107
869,938	-0,00088
870,108	-0,00086
870,279	-0,00074
870,449	-0,00075
870,62	-0,00082
870,79	-0,00089
870,961	-0,00054
871,131	-0,00047
871,302	-0,00009
871,472	-0,00004
871,642	-0,00008
871,813	-0,00029
871,983	-0,00028
872,153	-0,0003
872,324	-0,00012
872,494	-0,00014
872,664	0,00001
872,835	0,00002
873,005	0,0002
873,175	-0,00016
873,345	-0,00011
873,515	-0,00007
873,685	-0,00005
873,856	-0,00008
874,026	-0
874,196	0,00014
874,366	0,00019
874,536	0,00004
874,706	-0,00014
874,876	-0,00044
875,046	-0,0005
875,216	-0,00073
875,386	-0,00039
875,556	-0,00012
875,726	-0,00026
875,896	-0,00058
876,066	-0,00066
876,236	-0,00088
876,405	-0,00074
876,575	-0,00093
876,745	-0,00098
876,915	-0,00048
877,085	-0,00038
877,254	-0,00072
877,424	-0,00077
877,594	-0,00043
877,764	-0,00043
877,933	-0,00047
878,103	-0,00026
878,273	-0,00029
878,442	-0,00013
878,612	0,00012
878,781	-0,00024
878,951	-0,00023
879,121	-0,00027
879,29	-0,00066
879,46	-0,00088
879,629	-0,0006
879,799	-0,00047
879,968	-0,00028
880,138	0,00001
880,307	0,00002
880,476	-0,0001
880,646	-0,0003
880,815	-0,00024
880,985	-0,00022
881,154	0,00021
881,323	0,00045
881,493	0,0003
881,662	-0,00001
881,831	0,00003
882	-0,00019
882,17	0,00007
882,339	-0,00005
882,508	-0,00003
882,677	-0,00005
882,846	0,00037
883,016	0,00031
883,185	0,00015
883,354	0,00023
883,523	0,00001
883,692	-0,00021
883,861	-0,00012
884,03	-0,00053
884,199	-0,00015
884,368	0,00011
884,537	-0,00005
884,706	-0,00033
884,875	-0,00055
885,044	-0,00026
885,213	-0,00003
885,382	0
885,55	0,00021
885,719	-0,00016
885,888	-0,00007
886,057	-0,00018
886,226	-0,00027
886,395	0,00012
886,563	-0,00018
886,732	0,00006
886,901	-0,00026
887,069	-0,00024
887,238	0,00014
887,407	-0,00014
887,575	0,0002
887,744	0,00015
887,913	-0,00023
888,081	-0,0002
888,25	-0,00012
888,418	0,00001
888,587	-0,00049
888,755	-0,00018
888,924	-0,00046
889,092	-0,00063
889,261	-0,00087
889,429	-0,00079
889,598	-0,00044
889,766	0,00017
889,935	0,00011
890,103	-0,00043
890,271	-0,00022
890,44	0,00012
890,608	-0,00013
890,776	-0,00006
890,944	0,00035
891,113	0,00067
891,281	0,00025
891,449	0,00005
891,617	-0,00048
891,786	-0,0005
891,954	-0,00024
892,122	-0,00014
892,29	-0
892,458	-0,00016
892,626	-0,00023
892,794	-0,00048
892,962	-0,00043
893,13	-0,00018
893,298	-0,0001
893,466	0,0003
