Data from Chemiepractica_Absorbance__16__11-35-53-176.txt Node

Date: Mon Dec 09 11:35:53 CET 2024
User: r0948668
Spectrometer: USB4F07138
Trigger mode: 4
Integration Time (sec): 6,000000E-3
Scans to average: 20
Electric dark correction enabled: true
Nonlinearity correction enabled: false
Boxcar width: 5
XAxis mode: Wavelengths
Number of Pixels in Spectrum: 3648
>>>>>Begin Spectral Data<<<<<
176,779	-0,77325
176,999	-1,61945
177,218	-0,68821
177,438	-0
177,658	-0
177,878	-0
178,097	-0
178,317	-0
178,537	0,36114
178,757	-0,08443
178,976	0,33737
179,196	-0,3298
179,416	-0
179,635	0,08451
179,855	0,16664
180,075	0,07553
180,294	-0,01011
180,514	-0,04713
180,734	0,02526
180,953	0,01272
181,173	0,02442
181,392	0,00019
181,612	0,00587
181,832	0,02417
182,051	0,00718
182,271	-0,00855
182,49	-0,00759
182,71	0,01542
182,929	0,02936
183,149	0,00543
183,368	0,02471
183,588	0,02079
183,807	0,03736
184,027	0,05515
184,246	0,04707
184,466	0,04686
184,685	0,0577
184,905	0,05245
185,124	0,04016
185,344	0,03383
185,563	0,04436
185,782	0,04322
186,002	0,05319
186,221	0,04405
186,44	0,02863
186,66	0,0301
186,879	0,04095
187,099	0,03701
187,318	0,03841
187,537	0,04841
187,756	0,04196
187,976	0,0279
188,195	0,01916
188,414	0,01165
188,634	0,01107
188,853	0,01451
189,072	0,00814
189,291	0,00324
189,511	-0,00053
189,73	0,01042
189,949	0,01129
190,168	0,01939
190,387	0,03368
190,607	0,0263
190,826	0,01965
191,045	0,01459
191,264	0,00725
191,483	0,00279
191,702	0,00123
191,921	0,00401
192,141	0,00984
192,36	0,00001
192,579	-0,0097
192,798	-0,00641
193,017	-0,01005
193,236	-0,00139
193,455	0,00698
193,674	0,01395
193,893	0,01217
194,112	0,0191
194,331	0,01656
194,55	0,01132
194,769	0,01108
194,988	0,01731
195,207	0,02724
195,426	0,0402
195,645	0,03214
195,864	0,03017
196,083	0,02482
196,302	0,02413
196,521	0,01619
196,739	0,02262
196,958	0,01808
197,177	0,02206
197,396	0,02835
197,615	0,01061
197,834	0,00025
198,053	0,00427
198,271	-0,00526
198,49	0,01034
198,709	0,02317
198,928	0,03547
199,147	0,02923
199,365	0,03839
199,584	0,02834
199,803	0,01855
200,022	0,02489
200,24	0,0167
200,459	0,01616
200,678	0,02731
200,897	0,01583
201,115	0,0058
201,334	0,0142
201,553	0,01061
201,771	0,00161
201,99	0,00536
202,209	0,02492
202,427	0,02716
202,646	0,04975
202,864	0,04436
203,083	0,03597
203,302	0,04443
203,52	0,06058
203,739	0,04724
203,957	0,05108
204,176	0,05216
204,394	0,07152
204,613	0,06585
204,831	0,07316
205,05	0,06744
205,268	0,07626
205,487	0,08359
205,705	0,07399
205,924	0,06815
206,142	0,06905
206,361	0,08404
206,579	0,08361
206,798	0,07633
207,016	0,07157
207,234	0,05642
207,453	0,06081
207,671	0,07195
207,89	0,0727
208,108	0,07177
208,326	0,06225
208,545	0,05833
208,763	0,04597
208,981	0,03526
209,2	0,01783
209,418	0,0074
209,636	0,0048
209,855	0,00628
210,073	-0,00432
210,291	-0,01773
210,509	-0,01309
210,728	-0,01672
210,946	-0,01073
211,164	-0,01522
211,382	-0,0001
211,6	0,02171
211,819	0,03096
212,037	0,03804
212,255	0,02992
212,473	0,03527
212,691	0,04876
212,909	0,05368
213,128	0,06094
213,346	0,07717
213,564	0,0893
213,782	0,08643
214	0,08515
214,218	0,09175
214,436	0,09686
214,654	0,08295
214,872	0,06695
215,09	0,05763
215,308	0,06595
215,526	0,06897
215,744	0,05411
215,962	0,04556
216,18	0,02515
216,398	0,02909
216,616	0,01741
216,834	0,01395
217,052	0,02005
217,27	0,02717
217,488	0,03684
217,706	0,03147
217,924	0,03355
218,142	0,02972
218,36	0,03341
218,578	0,0485
218,795	0,03102
219,013	0,03216
219,231	0,02383
219,449	0,02401
219,667	0,02431
219,885	0,02624
220,102	0,02576
220,32	0,01085
220,538	0,01923
220,756	0,00942
220,973	0,01078
221,191	0,01457
221,409	0,014
221,627	0,0227
221,844	0,03098
222,062	0,03343
222,28	0,02644
222,497	0,01583
222,715	0,02449
222,933	0,00786
223,15	0,00842
223,368	0,01622
223,586	0,02772
223,803	0,03138
224,021	0,0273
224,239	0,01772
224,456	0,0134
224,674	0,01662
224,891	0,02551
225,109	0,02249
225,326	0,02395
225,544	0,03198
225,762	0,01532
225,979	0,00463
226,197	0,00587
226,414	-0,00513
226,632	-0,00633
226,849	-0,002
227,066	0,00112
227,284	-0,00429
227,501	0,01227
227,719	0,01742
227,936	0,02048
228,154	0,02931
228,371	0,03121
228,588	0,03703
228,806	0,05654
229,023	0,06712
229,241	0,07467
229,458	0,06849
229,675	0,07655
229,893	0,0621
230,11	0,0778
230,327	0,06772
230,545	0,06286
230,762	0,06976
230,979	0,07045
231,196	0,06476
231,414	0,05715
231,631	0,03636
231,848	0,03646
232,065	0,02794
232,283	0,02679
232,5	0,00147
232,717	0,00129
232,934	0,00254
233,151	-0,00356
233,368	-0,01785
233,586	-0,02382
233,803	-0,02324
234,02	0,00088
234,237	-0,00174
234,454	-0,00015
234,671	0,01122
234,888	0,02307
235,105	0,02933
235,322	0,03347
235,54	0,02806
235,757	0,0328
235,974	0,03094
236,191	0,02653
236,408	0,01057
236,625	0,01411
236,842	0,01467
237,059	0,01189
237,276	0,00455
237,493	0,00828
237,71	0,01165
237,926	0,01162
238,143	0,01791
238,36	0,02882
238,577	0,03352
238,794	0,03328
239,011	0,03102
239,228	0,03224
239,445	0,02692
239,662	0,04631
239,878	0,04727
240,095	0,04868
240,312	0,05885
240,529	0,0603
240,746	0,05572
240,963	0,058
241,179	0,05412
241,396	0,0589
241,613	0,05526
241,83	0,06376
242,046	0,04877
242,263	0,05088
242,48	0,03849
242,697	0,03061
242,913	0,02514
243,13	0,01994
243,347	0,02708
243,563	0,03859
243,78	0,03615
243,997	0,04026
244,213	0,04059
244,43	0,05
244,646	0,04122
244,863	0,04374
245,08	0,04891
245,296	0,04489
245,513	0,04015
245,729	0,03925
245,946	0,04627
246,162	0,04298
246,379	0,05417
246,595	0,04526
246,812	0,03669
247,028	0,04674
247,245	0,05058
247,461	0,0385
247,678	0,03121
247,894	0,03741
248,111	0,02181
248,327	0,01359
248,544	0,01449
248,76	0,00109
248,976	0,01362
249,193	0,00873
249,409	0,0085
249,626	0,0037
249,842	0,02006
250,058	0,03343
250,275	0,03506
250,491	0,03529
250,707	0,03502
250,924	0,04884
251,14	0,0605
251,356	0,05517
251,572	0,05356
251,789	0,04297
252,005	0,04835
252,221	0,03974
252,437	0,02788
252,654	0,02315
252,87	0,02207
253,086	0,0246
253,302	0,01178
253,518	0,00488
253,735	-0,00168
253,951	0,00598
254,167	0,00714
254,383	0,00297
254,599	0,00497
254,815	0,01063
255,031	0,00985
255,247	0,01715
255,463	0,01153
255,68	0,03485
255,896	0,03789
256,112	0,04039
256,328	0,03947
256,544	0,04486
256,76	0,06101
256,976	0,06146
257,192	0,0738
257,408	0,0768
257,624	0,07498
257,84	0,07949
258,056	0,05891
258,272	0,0561
258,487	0,04403
258,703	0,03578
258,919	0,03161
259,135	0,02344
259,351	0,02319
259,567	0,0191
259,783	0,01788
259,999	0,01933
260,215	0,01088
260,43	0,00252
260,646	-0,00502
260,862	0,00762
261,078	0,0145
261,294	0,0052
261,509	0,01863
261,725	0,01522
261,941	0,01466
262,157	0,02219
262,372	0,03584
262,588	0,03188
262,804	0,04159
263,019	0,04549
263,235	0,04374
263,451	0,04543
263,667	0,0591
263,882	0,04993
264,098	0,04958
264,313	0,04861
264,529	0,04374
264,745	0,03377
264,96	0,03944
265,176	0,0385
265,391	0,03584
265,607	0,03773
265,823	0,03164
266,038	0,02727
266,254	0,03119
266,469	0,03883
266,685	0,03269
266,9	0,0262
267,116	0,02565
267,331	0,03449
267,547	0,03062
267,762	0,02525
267,978	0,01796
268,193	0,03166
268,408	0,03575
268,624	0,03344
268,839	0,02367
269,055	0,02355
269,27	0,02443
269,485	0,02129
269,701	0,02221
269,916	0,02575
270,132	0,03718
270,347	0,04984
270,562	0,04972
270,777	0,04908
270,993	0,05102
271,208	0,05449
271,423	0,06983
271,639	0,07928
271,854	0,07881
272,069	0,06841
272,284	0,06456
272,5	0,06347
272,715	0,04971
272,93	0,04169
273,145	0,03114
273,36	0,0265
273,576	0,03324
273,791	0,02146
274,006	0,01373
274,221	0,01313
274,436	0,01828
274,651	0,01881
274,866	0,0198
275,081	0,02828
275,296	0,02077
275,512	0,02549
275,727	0,03569
275,942	0,03677
276,157	0,03621
276,372	0,03573
276,587	0,0407
276,802	0,05287
277,017	0,05213
277,232	0,05522
277,447	0,06057
277,662	0,06444
277,877	0,06397
278,092	0,04379
278,306	0,04632
278,521	0,04941
278,736	0,04931
278,951	0,05128
279,166	0,03834
279,381	0,02781
279,596	0,02179
279,811	0,0145
280,025	0,00901
280,24	0,01148
280,455	0,02458
280,67	0,01402
280,885	0,00677
281,099	0,00327
281,314	-0,00478
281,529	-0,00722
281,744	0,01463
281,959	0,02025
282,173	0,0283
282,388	0,04465
282,603	0,0433
282,817	0,04596
283,032	0,05441
283,247	0,05369
283,461	0,05637
283,676	0,05557
283,891	0,05323
284,105	0,05448
284,32	0,05241
284,535	0,04514
284,749	0,03748
284,964	0,04424
285,178	0,0428
285,393	0,03803
285,607	0,03635
285,822	0,04368
286,036	0,05324
286,251	0,06581
286,465	0,06846
286,68	0,06982
286,894	0,06085
287,109	0,06399
287,323	0,05353
287,538	0,04693
287,752	0,04165
287,967	0,04585
288,181	0,03944
288,396	0,04343
288,61	0,04255
288,824	0,0376
289,039	0,03434
289,253	0,03787
289,467	0,03709
289,682	0,03616
289,896	0,04209
290,11	0,04745
290,325	0,05121
290,539	0,04759
290,753	0,04166
290,968	0,03142
291,182	0,01564
291,396	0,01506
291,61	0,01629
291,825	0,01579
292,039	0,0148
292,253	0,00386
292,467	0,00436
292,681	0,0014
292,896	0,00825
293,11	-0,00152
293,324	0,00426
293,538	0,014
293,752	0,01894
293,966	0,02205
294,18	0,0202
294,394	0,02086
294,608	0,03561
294,823	0,0418
295,037	0,0432
295,251	0,04284
295,465	0,05411
295,679	0,05064
295,893	0,04775
296,107	0,04124
296,321	0,04392
296,535	0,04059
296,749	0,04231
296,963	0,02507
297,177	0,01413
297,391	0,01728
297,604	0,00914
297,818	-0,00226
298,032	-0,01024
298,246	-0,01208
298,46	-0,00661
298,674	-0,00978
298,888	-0,00259
299,102	0,00094
299,315	0,01597
299,529	0,01953
299,743	0,01686
299,957	0,01767
300,171	0,01896
300,385	0,03056
300,598	0,03145
300,812	0,03163
301,026	0,0327
301,24	0,03232
301,453	0,0304
301,667	0,0197
301,881	0,02238
302,094	0,02022
302,308	0,02424
302,522	0,04027
302,735	0,03407
302,949	0,03672
303,163	0,02852
303,376	0,02568
303,59	0,02693
303,803	0,02321
304,017	0,025
304,231	0,02684
304,444	0,03254
304,658	0,03429
304,871	0,03027
305,085	0,0338
305,298	0,03648
305,512	0,04289
305,725	0,04061
305,939	0,0414
306,152	0,04479
306,366	0,03449
306,579	0,03332
306,793	0,03055
307,006	0,03005
307,22	0,01957
307,433	0,01521
307,646	0,00854
307,86	0,00622
308,073	0,01698
308,286	0,00627
308,5	0,00925
308,713	0,01681
308,926	0,0121
309,14	0,00804
309,353	0,00364
309,566	0,00573
309,78	0,01109
309,993	0,01113
310,206	0,01825
310,419	0,0088
310,633	0,01241
310,846	0,01382
311,059	0,02016
311,272	0,02412
311,486	0,03016
311,699	0,02772
311,912	0,02839
312,125	0,02895
312,338	0,03327
312,551	0,01922
312,764	0,02019
312,978	0,02566
313,191	0,02456
313,404	0,01372
313,617	0,0128
313,83	0,01295
314,043	0,03091
314,256	0,02935
314,469	0,02506
314,682	0,02245
314,895	0,03504
315,108	0,04074
315,321	0,03326
315,534	0,03162
315,747	0,04567
315,96	0,04919
316,173	0,04086
316,386	0,02634
316,599	0,03336
316,812	0,0372
317,025	0,0368
317,237	0,0319
317,45	0,02812
317,663	0,03593
317,876	0,0395
318,089	0,03625
318,302	0,02398
318,515	0,03049
318,727	0,03089
318,94	0,0336
319,153	0,03253
319,366	0,03634
319,578	0,02883
319,791	0,03286
320,004	0,02144
320,217	0,02499
320,429	0,0244
320,642	0,03759
320,855	0,02564
321,067	0,02356
321,28	0,01579
321,493	0,02257
321,705	0,01587
321,918	0,02798
322,131	0,02307
322,343	0,02597
322,556	0,02526
322,768	0,0257
322,981	0,01642
323,194	0,0296
323,406	0,02694
323,619	0,02627
323,831	0,01844
324,044	0,02138
324,256	0,01578
324,469	0,0095
324,681	0,01672
324,894	0,00736
325,106	0,01361
325,319	0,01555
325,531	0,0149
325,743	0,01336
325,956	0,02303
326,168	0,01975
326,381	0,02287
326,593	0,02243
326,805	0,02964
327,018	0,02522
327,23	0,01941
327,442	0,01356
327,655	0,00769
327,867	0,00769
328,079	0,00891
328,292	-0,00367
328,504	-0,00014
328,716	-0,0051
328,928	-0,00069
329,141	0,00595
329,353	0,00483
329,565	0,01171
329,777	0,01229
329,99	0,02123
330,202	0,02134
330,414	0,02108
330,626	0,02777
330,838	0,02973
331,05	0,03291
331,263	0,02962
331,475	0,02289
331,687	0,02294
331,899	0,03234
332,111	0,02709
332,323	0,02741
332,535	0,02321
332,747	0,02905
332,959	0,02645
333,171	0,03236
333,383	0,03933
333,595	0,03408
333,807	0,03078
334,019	0,03088
334,231	0,02076
334,443	0,01972
334,655	0,01969
334,867	0,02445
335,079	0,02125
335,291	0,01607
335,503	0,01525
335,714	0,00895
335,926	0,01658
336,138	0,02374
336,35	0,01944
336,562	0,02098
336,774	0,0289
336,986	0,02711
337,197	0,02502
337,409	0,03219
337,621	0,03779
337,833	0,02891
338,044	0,03346
338,256	0,03105
338,468	0,02385
338,68	0,02355
338,891	0,02651
339,103	0,01949
339,315	0,01292
339,526	0,00627
339,738	-0,00611
339,95	-0,00535
340,161	-0,00078
340,373	-0,01162
340,585	-0,01835
340,796	-0,01601
341,008	-0,00638
341,219	-0,00254
341,431	-0,00488
341,642	-0,00037
341,854	0,01037
342,065	0,02226
342,277	0,01895
342,489	0,01411
342,7	0,02381
342,912	0,03241
343,123	0,04097
343,334	0,04226
343,546	0,0262
343,757	0,02791
343,969	0,02719
344,18	0,02206
344,392	0,01908
344,603	0,02721
344,814	0,02931
345,026	0,02634
345,237	0,02643
345,448	0,01562
345,66	0,01117
345,871	0,02263
346,082	0,03203
346,294	0,03445
346,505	0,03747
346,716	0,04172
346,927	0,03932
347,139	0,04364
347,35	0,04149
347,561	0,03936
347,772	0,04606
347,984	0,05207
348,195	0,05434
348,406	0,04161
348,617	0,0451
348,828	0,04012
349,039	0,03067
349,251	0,02973
349,462	0,02634
349,673	0,02359
349,884	0,01774
350,095	0,01072
350,306	0,00614
350,517	0,0117
350,728	0,01676
350,939	0,01211
351,15	0,01379
351,361	0,01393
351,572	0,01823
351,783	0,01695
351,994	0,02354
352,205	0,02548
352,416	0,03006
352,627	0,03413
352,838	0,02936
353,049	0,03629
353,26	0,03673
353,471	0,03532
353,682	0,03579
353,893	0,03241
354,103	0,03026
354,314	0,02414
354,525	0,02638
354,736	0,02872
354,947	0,02384
355,157	0,02284
355,368	0,01935
355,579	0,01583
355,79	0,01515
356,001	0,01671
356,211	0,01633
356,422	0,01238
356,633	0,01857
356,843	0,02126
357,054	0,01815
357,265	0,02539
357,476	0,02251
357,686	0,01336
357,897	0,01989
358,107	0,01668
358,318	0,01053
358,529	0,01297
358,739	0,02917
358,95	0,02387
359,16	0,01728
359,371	0,01433
359,582	0,00175
359,792	0,00517
360,003	0,00631
360,213	0,0024
360,424	0,00986
360,634	0,02193
360,845	0,01399
361,055	-0,00128
361,266	0,00029
361,476	0,01468
361,686	0,01903
361,897	0,02388
362,107	0,02504
362,318	0,03069
362,528	0,02878
362,738	0,02037
362,949	0,01744
363,159	0,02272
363,369	0,02818
363,58	0,02625
363,79	0,01615
364	0,01136
364,211	0,00871
364,421	0,00162
364,631	0,00716
364,842	0,00574
365,052	0,00791
365,262	0,00179
365,472	0,0019
365,682	0,00339
365,893	0,00348
366,103	0,0073
366,313	0,01087
366,523	0,01903
366,733	0,01797
366,943	0,0128
367,154	0,01592
367,364	0,02202
367,574	0,03044
367,784	0,0291
367,994	0,03449
368,204	0,03857
368,414	0,0381
368,624	0,03986
368,834	0,03528
369,044	0,0408
369,254	0,04262
369,464	0,04309
369,674	0,0417
369,884	0,03131
370,094	0,03192
370,304	0,02282
370,514	0,02371
370,724	0,01884
370,934	0,01455
371,144	0,01167
371,353	0,01296
371,563	0,01134
371,773	0,01197
371,983	0,00968
372,193	0,01166
372,403	0,01443
372,612	0,01742
372,822	0,01314
373,032	0,01475
373,242	0,01473
373,452	0,01365
373,661	0,01664
373,871	0,01403
374,081	0,01617
374,29	0,01946
374,5	0,02359
374,71	0,01908
374,92	0,01865
375,129	0,02202
375,339	0,01956
375,549	0,01851
375,758	0,02374
375,968	0,01783
376,177	0,01793
376,387	0,01437
376,597	0,0132
376,806	0,01579
377,016	0,0176
377,225	0,01686
377,435	0,011
377,644	0,01195
377,854	0,01599
378,063	0,01806
378,273	0,01941
378,482	0,0237
378,692	0,02886
378,901	0,02506
379,111	0,0253
379,32	0,02745
379,529	0,02874
379,739	0,03495
379,948	0,03528
380,158	0,03681
380,367	0,03629
380,576	0,03638
380,786	0,02988
380,995	0,02953
381,204	0,03406
381,414	0,03308
381,623	0,03145
381,832	0,03205
382,041	0,02819
382,251	0,03083
382,46	0,02491
382,669	0,01936
382,878	0,02173
383,088	0,02647
383,297	0,02242
383,506	0,02372
383,715	0,02036
383,924	0,01904
384,133	0,0115
384,342	0,01312
384,552	0,01147
384,761	0,01765
384,97	0,02228
385,179	0,0246
385,388	0,02257
385,597	0,02253
385,806	0,0211
386,015	0,02395
386,224	0,02323
386,433	0,02949
386,642	0,02815
386,851	0,0287
387,06	0,02602
387,269	0,02519
387,478	0,02277
387,687	0,02637
387,896	0,02559
388,105	0,02166
388,314	0,01717
388,523	0,01451
388,731	0,01536
388,94	0,01583
389,149	0,01531
389,358	0,01667
389,567	0,01882
389,776	0,01745
389,984	0,01451
390,193	0,01567
390,402	0,01646
390,611	0,01871
390,819	0,02154
391,028	0,02094
391,237	0,02397
391,446	0,02276
391,654	0,02158
391,863	0,01737
392,072	0,01563
392,28	0,01717
392,489	0,01714
392,698	0,01716
392,906	0,01535
393,115	0,01564
393,324	0,01703
393,532	0,01299
393,741	0,01187
393,949	0,01035
394,158	0,00993
394,366	0,00978
394,575	0,00691
394,783	0,00635
394,992	0,00546
395,2	0,00542
395,409	0,00751
395,617	0,00242
395,826	0,00609
396,034	0,00729
396,243	0,00803
396,451	0,00904
396,66	0,01071
396,868	0,01004
397,076	0,00957
397,285	0,01033
397,493	0,01373
397,701	0,0119
397,91	0,01293
398,118	0,00953
398,326	0,01235
398,535	0,00872
398,743	0,01206
398,951	0,01158
399,159	0,01554
399,368	0,01655
399,576	0,01633
399,784	0,01474
399,992	0,0147
400,201	0,01732
400,409	0,01697
400,617	0,01428
400,825	0,01995
401,033	0,01804
401,241	0,01976
401,45	0,01637
401,658	0,0171
401,866	0,01999
402,074	0,02083
402,282	0,02142
402,49	0,01917
402,698	0,01975
402,906	0,01746
403,114	0,01449
403,322	0,01383
403,53	0,01328
403,738	0,01484
403,946	0,01159
404,154	0,00961
404,362	0,01014
404,57	0,00986
404,778	0,01061
404,986	0,0125
405,194	0,01636
405,402	0,01705
405,609	0,01747
405,817	0,01497
406,025	0,01641
406,233	0,01954
406,441	0,01984
406,649	0,01704
406,856	0,01656
407,064	0,01647
407,272	0,0161
407,48	0,01465
407,687	0,01549
407,895	0,01503
408,103	0,01597
408,311	0,01553
408,518	0,01463
408,726	0,01524
408,934	0,01659
409,141	0,01487
409,349	0,01286
409,557	0,01167
409,764	0,01189
409,972	0,01176
410,18	0,01005
410,387	0,00933
410,595	0,00782
410,802	0,00738
411,01	0,0089
411,217	0,00921
411,425	0,01247
411,632	0,01461
411,84	0,01442
412,047	0,01169
412,255	0,01152
412,462	0,01376
412,67	0,01499
412,877	0,01653
413,085	0,01563
413,292	0,01358
413,499	0,01264
413,707	0,01118
413,914	0,01082
414,122	0,01019
414,329	0,01322
414,536	0,01347
414,744	0,013
414,951	0,01134
415,158	0,00953
415,366	0,00899
415,573	0,00895
415,78	0,00923
415,987	0,00843
416,195	0,00921
416,402	0,00858
416,609	0,00998
416,816	0,00957
417,023	0,01036
417,231	0,01294
417,438	0,01405
417,645	0,01493
417,852	0,01432
418,059	0,0146
418,266	0,01391
418,473	0,01297
418,68	0,01595
418,888	0,01336
419,095	0,01387
419,302	0,01277
419,509	0,01144
419,716	0,0117
419,923	0,01221
420,13	0,01171
420,337	0,01112
420,544	0,01146
420,751	0,01072
420,958	0,01004
421,165	0,01168
421,371	0,00976
421,578	0,00893
421,785	0,00909
421,992	0,00923
422,199	0,00997
422,406	0,01145
422,613	0,01239
422,82	0,01361
423,026	0,01415
423,233	0,01387
423,44	0,01163
423,647	0,01231
423,854	0,01305
424,06	0,01254
424,267	0,01132
424,474	0,01055
424,681	0,00955
424,887	0,00839
425,094	0,00736
425,301	0,00923
425,507	0,00681
425,714	0,00661
425,921	0,00618
426,127	0,00521
426,334	0,00548
426,54	0,00647
426,747	0,00628
426,954	0,00684
427,16	0,00738
427,367	0,00727
427,573	0,00553
427,78	0,00707
427,986	0,00845
428,193	0,00757
428,399	0,00943
428,606	0,00819
428,812	0,0078
429,019	0,00739
429,225	0,0073
429,432	0,00751
429,638	0,00843
429,845	0,00838
430,051	0,00832
430,257	0,00752
430,464	0,00869
430,67	0,00808
430,876	0,00899
431,083	0,00887
431,289	0,00983
431,495	0,01104
431,702	0,00974
431,908	0,00795
432,114	0,00743
432,32	0,00832
432,527	0,00923
432,733	0,00865
432,939	0,00819
433,145	0,00849
433,351	0,00874
433,558	0,00859
433,764	0,00803
433,97	0,00847
434,176	0,00923
434,382	0,01092
434,588	0,01036
434,794	0,00905
435,001	0,00914
435,207	0,00901
435,413	0,00778
435,619	0,00825
435,825	0,0078
436,031	0,00727
436,237	0,00856
436,443	0,00968
436,649	0,00866
436,855	0,00885
437,061	0,00991
437,267	0,0109
437,473	0,0118
437,679	0,01336
437,884	0,01273
438,09	0,01218
438,296	0,01089
438,502	0,00868
438,708	0,00806
438,914	0,00801
439,12	0,00785
439,325	0,00776
439,531	0,00811
439,737	0,00712
439,943	0,00655
440,149	0,00599
440,354	0,00622
440,56	0,00699
440,766	0,00737
440,972	0,00821
441,177	0,00946
441,383	0,00944
441,589	0,00914
441,794	0,00763
442	0,00794
442,206	0,00804
442,411	0,00834
442,617	0,00825
442,822	0,00901
443,028	0,00962
443,234	0,01036
443,439	0,00944
443,645	0,00951
443,85	0,00963
444,056	0,0103
444,261	0,01149
444,467	0,01136
444,672	0,01147
444,878	0,01273
445,083	0,01223
445,289	0,01238
445,494	0,01093
445,699	0,01106
445,905	0,01085
446,11	0,01113
446,316	0,01108
446,521	0,01013
446,726	0,01106
446,932	0,01052
447,137	0,00955
447,342	0,00958
447,548	0,00944
447,753	0,00989
447,958	0,00945
448,164	0,0092
448,369	0,00893
448,574	0,00754
448,779	0,00707
448,984	0,0056
449,19	0,00626
449,395	0,00638
449,6	0,00624
449,805	0,00618
450,01	0,00562
450,215	0,00564
450,421	0,00632
450,626	0,00645
450,831	0,00691
451,036	0,00712
451,241	0,00842
451,446	0,00748
451,651	0,0077
451,856	0,00775
452,061	0,0088
452,266	0,00922
452,471	0,00954
452,676	0,00949
452,881	0,00916
453,086	0,01047
453,291	0,01037
453,496	0,00928
453,701	0,01056
453,906	0,01047
454,111	0,01066
454,316	0,0108
454,52	0,01077
454,725	0,00988
454,93	0,01001
455,135	0,0105
455,34	0,01046
455,545	0,01141
455,749	0,01198
455,954	0,01115
456,159	0,01143
456,364	0,01175
456,568	0,01123
456,773	0,01101
456,978	0,01191
457,182	0,01248
457,387	0,01261
457,592	0,0122
457,796	0,01124
458,001	0,01185
458,206	0,01251
458,41	0,01255
458,615	0,01192
458,82	0,01147
459,024	0,01185
459,229	0,01241
459,433	0,01142
459,638	0,01145
459,842	0,01211
460,047	0,01218
460,251	0,01159
460,456	0,01118
460,66	0,01101
460,865	0,01145
461,069	0,01196
461,274	0,01211
461,478	0,01144
461,682	0,0113
461,887	0,01139
462,091	0,0113
462,296	0,01186
462,5	0,01245
462,704	0,01264
462,909	0,01249
463,113	0,01197
463,317	0,01182
463,522	0,01194
463,726	0,01254
463,93	0,01304
464,134	0,01283
464,339	0,01277
464,543	0,01274
464,747	0,01222
464,951	0,01271
465,155	0,01257
465,36	0,01299
465,564	0,0128
465,768	0,01271
465,972	0,01297
466,176	0,01292
466,38	0,0134
466,584	0,01387
466,788	0,01416
466,993	0,01421
467,197	0,01397
467,401	0,01458
467,605	0,01449
467,809	0,01507
468,013	0,01532
468,217	0,01477
468,421	0,01492
468,625	0,01475
468,829	0,01411
469,033	0,01361
469,236	0,01435
469,44	0,0142
469,644	0,01383
469,848	0,01351
470,052	0,01389
470,256	0,0127
470,46	0,01297
470,664	0,01317
470,867	0,01323
471,071	0,01374
471,275	0,01398
471,479	0,01337
471,683	0,01352
471,886	0,01406
472,09	0,01448
472,294	0,01396
472,497	0,01464
472,701	0,01463
472,905	0,01476
473,109	0,01501
473,312	0,01468
473,516	0,01515
473,719	0,01512
473,923	0,01539
474,127	0,01524
474,33	0,01527
474,534	0,01567
474,737	0,016
474,941	0,01587
475,145	0,01568
475,348	0,01537
475,552	0,01562
475,755	0,01533
475,959	0,01586
476,162	0,01596
476,366	0,01607
476,569	0,01599
476,772	0,01582
476,976	0,01589
477,179	0,01622
477,383	0,01625
477,586	0,01633
477,789	0,01632
477,993	0,01636
478,196	0,01627
478,399	0,01642
478,603	0,01646
478,806	0,01676
479,009	0,01661
479,213	0,01622
479,416	0,01576
479,619	0,01658
479,822	0,01678
480,026	0,01724
480,229	0,01722
480,432	0,01758
480,635	0,01733
480,838	0,01753
481,041	0,01728
481,245	0,01756
481,448	0,01764
481,651	0,01817
481,854	0,01783
482,057	0,01766
482,26	0,01778
482,463	0,01813
482,666	0,0183
482,869	0,01863
483,072	0,01846
483,275	0,01877
483,478	0,01876
483,681	0,01941
483,884	0,01946
484,087	0,01948
484,29	0,01992
484,493	0,01984
484,696	0,01986
484,899	0,01981
485,102	0,02009
485,305	0,02011
485,508	0,0206
485,71	0,02089
485,913	0,02101
486,116	0,02104
486,319	0,02129
486,522	0,02143
486,725	0,02153
486,927	0,02172
487,13	0,02202
487,333	0,02217
487,536	0,0229
487,738	0,0229
487,941	0,02306
488,144	0,02322
488,346	0,02355
488,549	0,02356
488,752	0,0238
488,954	0,02417
489,157	0,02421
489,359	0,02413
489,562	0,02401
489,765	0,02367
489,967	0,02368
490,17	0,02404
490,372	0,02421
490,575	0,02438
490,777	0,02461
490,98	0,0247
491,182	0,02461
491,385	0,02487
491,587	0,02487
491,79	0,02527
491,992	0,02559
492,195	0,02597
492,397	0,02593
492,599	0,02601
492,802	0,026
493,004	0,02617
493,207	0,02626
493,409	0,02647
493,611	0,02679
493,814	0,0271
494,016	0,0269
494,218	0,02695
494,42	0,02697
494,623	0,0271
494,825	0,02716
495,027	0,02706
495,229	0,02719
495,432	0,0273
495,634	0,02751
495,836	0,02741
496,038	0,02752
496,24	0,02774
496,442	0,0278
496,645	0,02796
496,847	0,02807
497,049	0,028
497,251	0,02858
497,453	0,02892
497,655	0,029
497,857	0,02931
498,059	0,02966
498,261	0,02982
498,463	0,03016
498,665	0,03062
498,867	0,03093
499,069	0,03119
499,271	0,03153
499,473	0,03162
499,675	0,03173
499,877	0,03203
500,079	0,032
500,281	0,03196
500,482	0,0322
500,684	0,03253
500,886	0,03246
501,088	0,03262
501,29	0,03295
501,492	0,03325
501,693	0,03361
501,895	0,03396
502,097	0,03407
502,299	0,03417
502,5	0,03439
502,702	0,03459
502,904	0,03493
503,106	0,03522
503,307	0,03518
503,509	0,0354
503,711	0,03537
503,912	0,03567
504,114	0,03536
504,315	0,03561
504,517	0,03618
504,719	0,03661
504,92	0,03667
505,122	0,03668
505,323	0,03686
505,525	0,03707
505,726	0,03706
505,928	0,03764
506,129	0,03773
506,331	0,03795
506,532	0,03813
506,734	0,03801
506,935	0,03806
507,137	0,03838
507,338	0,03849
507,539	0,03869
507,741	0,03923
507,942	0,03947
508,143	0,03965
508,345	0,0398
508,546	0,04011
508,747	0,04058
508,949	0,04095
509,15	0,04111
509,351	0,04111
509,553	0,04123
509,754	0,0416
509,955	0,04163
510,156	0,0418
510,357	0,0419
510,559	0,04211
510,76	0,04233
510,961	0,04262
511,162	0,04286
511,363	0,04311
511,564	0,04338
511,766	0,04374
511,967	0,044
512,168	0,0441
512,369	0,04445
512,57	0,04478
512,771	0,04523
512,972	0,04556
513,173	0,04577
513,374	0,04607
513,575	0,04633
513,776	0,04672
513,977	0,04662
514,178	0,04681
514,379	0,0471
514,58	0,04733
514,781	0,04766
514,981	0,04762
515,182	0,04787
515,383	0,04801
515,584	0,0483
515,785	0,04854
515,986	0,04884
516,187	0,04951
516,387	0,04964
516,588	0,05002
516,789	0,05033
516,99	0,05045
517,19	0,05077
517,391	0,05111
517,592	0,0514
517,793	0,0515
517,993	0,05186
518,194	0,05224
518,395	0,05236
518,595	0,05272
518,796	0,05287
518,996	0,05318
519,197	0,0533
519,398	0,05354
519,598	0,05405
519,799	0,05412
519,999	0,05435
520,2	0,05475
520,4	0,05485
520,601	0,05529
520,801	0,05552
521,002	0,05587
521,202	0,05623
521,403	0,05665
521,603	0,05705
521,804	0,05695
522,004	0,05737
522,204	0,05767
522,405	0,05781
522,605	0,05811
522,806	0,05826
523,006	0,0585
523,206	0,05879
523,407	0,05889
523,607	0,05904
523,807	0,05927
524,007	0,05964
524,208	0,0599
524,408	0,06001
524,608	0,06042
524,808	0,06071
525,009	0,06107
525,209	0,0615
525,409	0,06174
525,609	0,06193
525,809	0,06262
526,009	0,06289
526,209	0,06325
526,41	0,06343
526,61	0,06412
526,81	0,06421
527,01	0,06446
527,21	0,06452
527,41	0,0649
527,61	0,06533
527,81	0,06572
528,01	0,06576
528,21	0,066
528,41	0,06617
528,61	0,06646
528,81	0,06671
529,01	0,06702
529,21	0,06729
529,41	0,06756
529,609	0,06761
529,809	0,06771
530,009	0,06789
530,209	0,06819
530,409	0,06834
530,609	0,0687
530,808	0,06891
531,008	0,06898
531,208	0,06927
531,408	0,06952
531,608	0,06988
531,807	0,07002
532,007	0,07024
532,207	0,07046
532,406	0,07065
532,606	0,07114
532,806	0,07134
533,005	0,07157
533,205	0,07167
533,405	0,07176
533,604	0,07226
533,804	0,07253
534,003	0,0728
534,203	0,07314
534,403	0,0732
534,602	0,07334
534,802	0,07342
535,001	0,07355
535,201	0,07374
535,4	0,07389
535,6	0,07408
535,799	0,07404
535,998	0,07422
536,198	0,07454
536,397	0,07475
536,597	0,07516
536,796	0,07537
536,995	0,07543
537,195	0,0755
537,394	0,07574
537,594	0,07626
537,793	0,07646
537,992	0,07677
538,191	0,077
538,391	0,0772
538,59	0,07725
538,789	0,07737
538,988	0,07747
539,188	0,07782
539,387	0,07809
539,586	0,07835
539,785	0,07833
539,984	0,07874
540,184	0,07867
540,383	0,0789
540,582	0,07896
540,781	0,07922
540,98	0,0795
541,179	0,0798
541,378	0,07997
541,577	0,08012
541,776	0,08015
541,975	0,08043
542,174	0,08039
542,373	0,0807
542,572	0,08079
542,771	0,0811
542,97	0,08125
543,169	0,08126
543,368	0,08126
543,567	0,08132
543,766	0,08145
543,965	0,08165
544,164	0,08168
544,362	0,08191
544,561	0,08203
544,76	0,08225
544,959	0,08248
545,158	0,08256
545,356	0,08275
545,555	0,0831
545,754	0,08329
545,953	0,08341
546,151	0,08364
546,35	0,08384
546,549	0,08386
546,748	0,08392
546,946	0,08377
547,145	0,08378
547,344	0,08395
547,542	0,08404
547,741	0,08412
547,939	0,0842
548,138	0,08428
548,337	0,08433
548,535	0,08421
548,734	0,08436
548,932	0,08438
549,131	0,0847
549,329	0,08475
549,528	0,0847
549,726	0,08473
549,925	0,08473
550,123	0,08489
550,322	0,08506
550,52	0,08511
550,718	0,08538
550,917	0,08542
551,115	0,08554
551,313	0,08558
551,512	0,08572
551,71	0,08595
551,908	0,08618
552,107	0,08637
552,305	0,08639
552,503	0,08656
552,702	0,08659
552,9	0,08651
553,098	0,0867
553,296	0,08686
553,495	0,08692
553,693	0,08681
553,891	0,08688
554,089	0,08694
554,287	0,08698
554,485	0,08707
554,683	0,08695
554,882	0,08697
555,08	0,08724
555,278	0,08715
555,476	0,08717
555,674	0,08725
555,872	0,08735
556,07	0,08754
556,268	0,0876
556,466	0,08753
556,664	0,08763
556,862	0,0877
557,06	0,08807
557,258	0,08806
557,456	0,08835
557,654	0,08845
557,851	0,08845
558,049	0,08849
558,247	0,08851
558,445	0,08869
558,643	0,08887
558,841	0,08896
559,039	0,08921
559,236	0,0891
559,434	0,08924
559,632	0,08929
559,83	0,0895
560,027	0,08967
560,225	0,08989
560,423	0,08988
560,62	0,09003
560,818	0,09006
561,016	0,09015
561,213	0,09027
561,411	0,09047
561,609	0,09064
561,806	0,09064
562,004	0,09074
562,202	0,09079
562,399	0,09105
562,597	0,09124
562,794	0,09131
562,992	0,09138
563,189	0,09154
563,387	0,0916
563,584	0,09184
563,782	0,09197
563,979	0,09226
564,177	0,09243
564,374	0,09268
564,571	0,09278
564,769	0,09284
564,966	0,09286
565,164	0,09316
565,361	0,0932
565,558	0,09346
565,756	0,09343
565,953	0,09351
566,15	0,09352
566,347	0,09365
566,545	0,09372
566,742	0,09383
566,939	0,09413
567,136	0,09409
567,334	0,09428
567,531	0,09453
567,728	0,09473
567,925	0,09505
568,122	0,09535
568,319	0,09555
568,517	0,09572
568,714	0,09607
568,911	0,09638
569,108	0,0965
569,305	0,09703
569,502	0,09722
569,699	0,09734
569,896	0,09747
570,093	0,09756
570,29	0,09785
570,487	0,09816
570,684	0,0985
570,881	0,09859
571,078	0,09875
571,275	0,09901
571,472	0,09921
571,669	0,09927
571,866	0,09948
572,062	0,09982
572,259	0,10016
572,456	0,10014
572,653	0,10036
572,85	0,10042
573,047	0,10076
573,243	0,10089
573,44	0,10113
573,637	0,10131
573,834	0,10176
574,03	0,10218
574,227	0,10226
574,424	0,10253
574,62	0,10282
574,817	0,10306
575,014	0,10332
575,21	0,10341
575,407	0,1037
575,604	0,10405
575,8	0,10446
575,997	0,10478
576,193	0,10493
576,39	0,10538
576,586	0,10551
576,783	0,10582
576,979	0,10603
577,176	0,10631
577,372	0,10658
577,569	0,10685
577,765	0,10698
577,962	0,10717
578,158	0,10731
578,355	0,10769
578,551	0,10778
578,747	0,10813
578,944	0,10841
579,14	0,10875
579,336	0,10906
579,533	0,1094
579,729	0,10952
579,925	0,10978
580,122	0,1099
580,318	0,1101
580,514	0,1102
580,71	0,11047
580,906	0,11066
581,103	0,11102
581,299	0,11119
581,495	0,11127
581,691	0,11154
581,887	0,11181
582,084	0,11204
582,28	0,11244
582,476	0,11267
582,672	0,11288
582,868	0,11308
583,064	0,11338
583,26	0,11349
583,456	0,11366
583,652	0,11384
583,848	0,11402
584,044	0,11423
584,24	0,11438
584,436	0,11447
584,632	0,11452
584,828	0,11468
585,024	0,11484
585,22	0,11495
585,416	0,115
585,611	0,11514
585,807	0,11542
586,003	0,11547
586,199	0,11557
586,395	0,11578
586,591	0,11591
586,786	0,11621
586,982	0,11625
587,178	0,11641
587,374	0,11635
587,569	0,11651
587,765	0,1166
587,961	0,11666
588,156	0,11671
588,352	0,11681
588,548	0,11687
588,743	0,11689
588,939	0,11675
589,135	0,11684
589,33	0,11679
589,526	0,11687
589,721	0,11674
589,917	0,11673
590,112	0,11662
590,308	0,11663
590,503	0,11664
590,699	0,11652
590,894	0,11645
591,09	0,1166
591,285	0,11659
591,481	0,11652
591,676	0,1165
591,872	0,11647
592,067	0,11636
592,262	0,11641
592,458	0,11635
592,653	0,11622
592,848	0,11605
593,044	0,11601
593,239	0,11579
593,434	0,11555
593,629	0,11545
593,825	0,11525
594,02	0,11513
594,215	0,11505
594,41	0,11482
594,606	0,11462
594,801	0,11432
594,996	0,11415
595,191	0,11374
595,386	0,11343
595,581	0,11328
595,777	0,11304
595,972	0,11276
596,167	0,11239
596,362	0,11207
596,557	0,11182
596,752	0,11161
596,947	0,1114
597,142	0,11117
597,337	0,11093
597,532	0,11073
597,727	0,11035
597,922	0,10993
598,117	0,10953
598,312	0,10941
598,507	0,10896
598,701	0,10843
598,896	0,10798
599,091	0,10757
599,286	0,10716
599,481	0,10662
599,676	0,10618
599,87	0,1058
600,065	0,10541
600,26	0,10513
600,455	0,10463
600,65	0,1042
600,844	0,10366
601,039	0,10313
601,234	0,10272
601,428	0,10224
601,623	0,10187
601,818	0,1013
602,012	0,10091
602,207	0,10042
602,402	0,09969
602,596	0,09892
602,791	0,09849
602,985	0,09828
603,18	0,0978
603,374	0,09721
603,569	0,09669
603,763	0,09625
603,958	0,09574
604,152	0,09508
604,347	0,09442
604,541	0,09402
604,736	0,09361
604,93	0,09292
605,125	0,09206
605,319	0,09143
605,513	0,09078
605,708	0,09013
605,902	0,08943
606,096	0,08885
606,291	0,08835
606,485	0,0878
606,679	0,08727
606,874	0,08663
607,068	0,08614
607,262	0,08573
607,456	0,08523
607,65	0,08466
607,845	0,08399
608,039	0,08351
608,233	0,08279
608,427	0,08208
608,621	0,08149
608,815	0,08081
609,01	0,08023
609,204	0,07947
609,398	0,07892
609,592	0,0782
609,786	0,07772
609,98	0,07716
610,174	0,07653
610,368	0,07609
610,562	0,07543
610,756	0,07483
610,95	0,07421
611,144	0,07359
611,338	0,07309
611,532	0,07232
611,726	0,07168
611,919	0,07096
612,113	0,07042
612,307	0,0698
612,501	0,06924
612,695	0,06871
612,889	0,06808
613,082	0,06744
613,276	0,06689
613,47	0,06637
613,664	0,06575
613,857	0,06511
614,051	0,06457
614,245	0,06401
614,439	0,06337
614,632	0,06284
614,826	0,06216
615,02	0,06155
615,213	0,06109
615,407	0,06051
615,6	0,0599
615,794	0,0594
615,988	0,05901
616,181	0,05843
616,375	0,05782
616,568	0,05726
616,762	0,05665
616,955	0,05621
617,149	0,0557
617,342	0,05507
617,536	0,05455
617,729	0,05401
617,923	0,05347
618,116	0,05289
618,309	0,05236
618,503	0,05185
618,696	0,0513
618,889	0,05073
619,083	0,05
619,276	0,04943
619,469	0,04895
619,663	0,04841
619,856	0,04786
620,049	0,0475
620,242	0,04701
620,436	0,04653
620,629	0,04609
620,822	0,04562
621,015	0,04506
621,209	0,04473
621,402	0,0444
621,595	0,04403
621,788	0,04364
621,981	0,04328
622,174	0,04272
622,367	0,04218
622,56	0,04174
622,753	0,04118
622,946	0,04076
623,139	0,04037
623,332	0,03998
623,525	0,03943
623,718	0,03891
623,911	0,0384
624,104	0,03792
624,297	0,03747
624,49	0,03727
624,683	0,03684
624,876	0,03654
625,069	0,03602
625,262	0,03571
625,454	0,03529
625,647	0,03502
625,84	0,03465
626,033	0,03437
626,226	0,03398
626,418	0,03367
626,611	0,03327
626,804	0,03286
626,997	0,03233
627,189	0,0321
627,382	0,0317
627,575	0,03139
627,767	0,03108
627,96	0,03074
628,153	0,03024
628,345	0,02999
628,538	0,02964
628,731	0,02922
628,923	0,029
629,116	0,0289
629,308	0,02851
629,501	0,02816
629,693	0,02795
629,886	0,02759
630,078	0,02721
630,271	0,02716
630,463	0,02689
630,656	0,02654
630,848	0,02627
631,04	0,02598
631,233	0,02572
631,425	0,02553
631,617	0,02523
631,81	0,02482
632,002	0,02448
632,194	0,02431
632,387	0,02392
632,579	0,02358
632,771	0,02333
632,964	0,02311
633,156	0,02277
633,348	0,02238
633,54	0,02217
633,732	0,02191
633,925	0,02177
634,117	0,02163
634,309	0,02144
634,501	0,02118
634,693	0,02091
634,885	0,02078
635,077	0,02044
635,269	0,02028
635,462	0,02013
635,654	0,0199
635,846	0,01982
636,038	0,0195
636,23	0,01932
636,422	0,01906
636,614	0,01879
636,806	0,01867
636,997	0,01854
637,189	0,01838
637,381	0,0182
637,573	0,01797
637,765	0,01773
637,957	0,01745
638,149	0,01735
638,341	0,01719
638,532	0,01697
638,724	0,01682
638,916	0,01665
639,108	0,01633
639,299	0,01627
639,491	0,01599
639,683	0,01599
639,875	0,01588
640,066	0,01583
640,258	0,01559
640,45	0,01535
640,641	0,01533
640,833	0,0152
641,025	0,01507
641,216	0,01489
641,408	0,01465
641,599	0,01457
641,791	0,01431
641,982	0,01407
642,174	0,01384
642,366	0,01372
642,557	0,0135
642,748	0,01316
642,94	0,01306
643,131	0,01271
643,323	0,01266
643,514	0,0126
643,706	0,01251
643,897	0,01241
644,088	0,0124
644,28	0,01226
644,471	0,01211
644,662	0,01208
644,854	0,01203
645,045	0,01193
645,236	0,01193
645,428	0,0118
645,619	0,01163
645,81	0,01147
646,001	0,01121
646,193	0,01106
646,384	0,0109
646,575	0,0108
646,766	0,0107
646,957	0,01058
647,148	0,0104
647,339	0,01034
647,531	0,0103
647,722	0,01019
647,913	0,01004
648,104	0,01007
648,295	0,0099
648,486	0,00985
648,677	0,00973
648,868	0,00964
649,059	0,00953
649,25	0,00943
649,441	0,00938
649,632	0,00913
649,823	0,00912
650,013	0,00904
650,204	0,00887
650,395	0,0087
650,586	0,00872
650,777	0,00864
650,968	0,00852
651,159	0,00847
651,349	0,00839
651,54	0,00817
651,731	0,00799
651,922	0,0079
652,112	0,00777
652,303	0,00778
652,494	0,00788
652,684	0,00772
652,875	0,00777
653,066	0,00778
653,256	0,00773
653,447	0,00773
653,638	0,0077
653,828	0,00776
654,019	0,00769
654,209	0,00773
654,4	0,00756
654,59	0,00748
654,781	0,0075
654,972	0,00739
655,162	0,00731
655,352	0,00724
655,543	0,00713
655,733	0,00707
655,924	0,00703
656,114	0,00696
656,305	0,0069
656,495	0,00689
656,685	0,00679
656,876	0,00674
657,066	0,00671
657,256	0,00668
657,447	0,00674
657,637	0,00681
657,827	0,00674
658,017	0,00678
658,208	0,00667
658,398	0,00658
658,588	0,00655
658,778	0,0065
658,968	0,00629
659,159	0,00616
659,349	0,00605
659,539	0,00584
659,729	0,00577
659,919	0,0058
660,109	0,00572
660,299	0,00581
660,489	0,00582
660,679	0,00577
660,869	0,00581
661,059	0,00589
661,249	0,00581
661,439	0,00582
661,629	0,00572
661,819	0,00564
662,009	0,00561
662,199	0,00552
662,389	0,00543
662,579	0,00537
662,769	0,0053
662,959	0,00525
663,149	0,00528
663,338	0,00533
663,528	0,00533
663,718	0,00538
663,908	0,00518
664,097	0,00506
664,287	0,00504
664,477	0,00495
664,667	0,00488
664,856	0,00486
665,046	0,00474
665,236	0,00471
665,425	0,00465
665,615	0,00456
665,805	0,00459
665,994	0,00475
666,184	0,00475
666,373	0,00472
666,563	0,00473
666,753	0,00479
666,942	0,00477
667,132	0,00467
667,321	0,00458
667,511	0,00455
667,7	0,00452
667,889	0,00444
668,079	0,00438
668,268	0,00439
668,458	0,00439
668,647	0,00436
668,836	0,00425
669,026	0,00423
669,215	0,00424
669,404	0,00434
669,594	0,0043
669,783	0,00422
669,972	0,00427
670,162	0,0043
670,351	0,00416
670,54	0,00404
670,729	0,00395
670,919	0,00399
671,108	0,00396
671,297	0,00393
671,486	0,00376
671,675	0,00373
671,864	0,00381
672,053	0,00371
672,243	0,00363
672,432	0,00368
672,621	0,00378
672,81	0,00382
672,999	0,00371
673,188	0,00377
673,377	0,0038
673,566	0,00384
673,755	0,00382
673,944	0,00374
674,133	0,00363
674,322	0,00367
674,51	0,00378
674,699	0,00368
674,888	0,00359
675,077	0,00356
675,266	0,00338
675,455	0,0034
675,644	0,00335
675,832	0,00331
676,021	0,00324
676,21	0,00341
676,399	0,00327
676,587	0,00309
676,776	0,00312
676,965	0,00317
677,153	0,00314
677,342	0,00316
677,531	0,00307
677,719	0,00311
677,908	0,00312
678,097	0,00316
678,285	0,00301
678,474	0,00305
678,662	0,00308
678,851	0,00304
679,039	0,00294
679,228	0,00301
679,416	0,00305
679,605	0,00309
679,793	0,00303
679,982	0,00302
680,17	0,00299
680,359	0,00305
680,547	0,00307
680,736	0,0031
680,924	0,00311
681,112	0,00318
681,301	0,00321
681,489	0,00323
681,677	0,00315
681,866	0,00306
682,054	0,00298
682,242	0,00298
682,43	0,00297
682,619	0,00293
682,807	0,0029
682,995	0,00281
683,183	0,00269
683,371	0,00276
683,559	0,0027
683,748	0,00271
683,936	0,00276
684,124	0,00288
684,312	0,00278
684,5	0,00269
684,688	0,00272
684,876	0,00266
685,064	0,00261
685,252	0,00266
685,44	0,00255
685,628	0,00255
685,816	0,00261
686,004	0,0026
686,192	0,00252
686,38	0,00263
686,568	0,00266
686,756	0,00257
686,944	0,00253
687,131	0,00262
687,319	0,00266
687,507	0,00269
687,695	0,0026
687,883	0,00248
688,07	0,00245
688,258	0,00245
688,446	0,00238
688,634	0,00244
688,821	0,00246
689,009	0,00246
689,197	0,00247
689,384	0,00246
689,572	0,00242
689,76	0,00249
689,947	0,00251
690,135	0,00256
690,323	0,00268
690,51	0,00267
690,698	0,00259
690,885	0,00268
691,073	0,00263
691,26	0,00263
691,448	0,0026
691,635	0,0026
691,823	0,00259
692,01	0,0026
692,197	0,00248
692,385	0,00236
692,572	0,00234
692,76	0,00247
692,947	0,00238
693,134	0,00247
693,322	0,00237
693,509	0,00237
693,696	0,00231
693,884	0,00223
694,071	0,00223
694,258	0,00228
694,445	0,00226
694,633	0,00222
694,82	0,00201
695,007	0,00197
695,194	0,00206
695,381	0,00214
695,568	0,00216
695,756	0,00222
695,943	0,00227
696,13	0,00226
696,317	0,00229
696,504	0,00228
696,691	0,0024
696,878	0,00249
697,065	0,00243
697,252	0,00237
697,439	0,00237
697,626	0,00234
697,813	0,00231
698	0,00228
698,187	0,00221
698,374	0,00219
698,561	0,00219
698,747	0,00214
698,934	0,0021
699,121	0,00211
699,308	0,00201
699,495	0,00193
699,682	0,00195
699,868	0,0019
700,055	0,00183
700,242	0,00181
700,429	0,00173
700,615	0,0017
700,802	0,00163
700,989	0,00159
701,175	0,00157
701,362	0,0017
701,549	0,0017
701,735	0,00167
701,922	0,00176
702,108	0,00177
702,295	0,00183
702,482	0,00179
702,668	0,00189
702,855	0,00186
703,041	0,00189
703,228	0,00194
703,414	0,00185
703,601	0,0019
703,787	0,00192
703,973	0,00179
704,16	0,00174
704,346	0,00176
704,533	0,00177
704,719	0,00164
704,905	0,00161
705,092	0,00164
705,278	0,00164
705,464	0,00166
705,65	0,00163
705,837	0,0015
706,023	0,00153
706,209	0,00163
706,395	0,00169
706,582	0,0017
706,768	0,00172
706,954	0,00187
707,14	0,00181
707,326	0,0018
707,512	0,0017
707,698	0,00171
707,885	0,00179
708,071	0,00178
708,257	0,00175
708,443	0,0017
708,629	0,00176
708,815	0,00175
709,001	0,00163
709,187	0,00164
709,373	0,00173
709,559	0,00175
709,745	0,00169
709,93	0,00164
710,116	0,00169
710,302	0,00169
710,488	0,00166
710,674	0,00167
710,86	0,00163
711,046	0,0017
711,231	0,00172
711,417	0,00171
711,603	0,00169
711,789	0,00168
711,974	0,00168
712,16	0,0016
712,346	0,00162
712,532	0,00163
712,717	0,00156
712,903	0,00154
713,089	0,00147
713,274	0,00139
713,46	0,00129
713,645	0,00132
713,831	0,00143
714,016	0,00141
714,202	0,0015
714,388	0,00158
714,573	0,00144
714,759	0,00145
714,944	0,00143
715,129	0,00139
715,315	0,00144
715,5	0,00138
715,686	0,00135
715,871	0,00131
716,057	0,00128
716,242	0,00132
716,427	0,00119
716,613	0,00131
716,798	0,00131
716,983	0,00138
717,168	0,00149
717,354	0,00155
717,539	0,00158
717,724	0,0016
717,909	0,00157
718,095	0,00168
718,28	0,00156
718,465	0,00158
718,65	0,0016
718,835	0,00145
719,02	0,00144
719,206	0,00144
719,391	0,00144
719,576	0,00132
719,761	0,0014
719,946	0,00133
720,131	0,00128
720,316	0,00133
720,501	0,0013
720,686	0,00133
720,871	0,00149
721,056	0,00145
721,241	0,00135
721,426	0,00126
721,61	0,00133
721,795	0,00126
721,98	0,00127
722,165	0,00128
722,35	0,00132
722,535	0,00127
722,719	0,00124
722,904	0,00129
723,089	0,00133
723,274	0,00137
723,458	0,00131
723,643	0,00132
723,828	0,00135
724,013	0,00136
724,197	0,00133
724,382	0,00128
724,567	0,00133
724,751	0,00135
724,936	0,0012
725,12	0,00118
725,305	0,00127
725,489	0,00134
725,674	0,00141
725,859	0,00135
726,043	0,00134
726,228	0,00134
726,412	0,00126
726,596	0,00126
726,781	0,00131
726,965	0,00137
727,15	0,00146
727,334	0,00134
727,518	0,00124
727,703	0,00128
727,887	0,00132
728,072	0,00147
728,256	0,00149
728,44	0,00162
728,624	0,00156
728,809	0,00135
728,993	0,00139
729,177	0,00137
729,361	0,00146
729,546	0,00156
729,73	0,00145
729,914	0,00132
730,098	0,00121
730,282	0,00112
730,466	0,00099
730,65	0,00113
730,834	0,00119
731,019	0,00111
731,203	0,0011
731,387	0,00106
731,571	0,00092
731,755	0,00093
731,939	0,00094
732,123	0,00089
732,306	0,00099
732,49	0,00105
732,674	0,001
732,858	0,00099
733,042	0,00096
733,226	0,0011
733,41	0,00109
733,594	0,00123
733,778	0,00123
733,961	0,00136
734,145	0,00143
734,329	0,00152
734,513	0,0015
734,696	0,00146
734,88	0,00147
735,064	0,00152
735,247	0,00131
735,431	0,00129
735,615	0,00124
735,798	0,00143
735,982	0,00145
736,166	0,00149
736,349	0,0014
736,533	0,00146
736,716	0,00153
736,9	0,00159
737,083	0,00156
737,267	0,00153
737,45	0,00152
737,634	0,00161
737,817	0,00141
738,001	0,00136
738,184	0,00126
738,368	0,00128
738,551	0,0011
738,734	0,00104
738,918	0,00095
739,101	0,00107
739,284	0,00107
739,468	0,00103
739,651	0,00104
739,834	0,00104
740,018	0,00099
740,201	0,00103
740,384	0,00102
740,567	0,00117
740,75	0,00118
740,934	0,0012
741,117	0,00108
741,3	0,00121
741,483	0,0013
741,666	0,00118
741,849	0,00123
742,032	0,00127
742,215	0,00125
742,399	0,00123
742,582	0,00123
742,765	0,00129
742,948	0,00137
743,131	0,00143
743,314	0,00125
743,496	0,00119
743,679	0,00131
743,862	0,00133
744,045	0,00133
744,228	0,00133
744,411	0,00127
744,594	0,00124
744,777	0,00123
744,959	0,00129
745,142	0,00136
745,325	0,00151
745,508	0,00154
745,691	0,00156
745,873	0,00142
746,056	0,00145
746,239	0,00142
746,421	0,00154
746,604	0,00155
746,787	0,00152
746,969	0,00139
747,152	0,00127
747,335	0,00125
747,517	0,00122
747,7	0,00122
747,882	0,0013
748,065	0,0012
748,247	0,00134
748,43	0,00113
748,612	0,00116
748,795	0,00116
748,977	0,00112
749,16	0,001
749,342	0,00102
749,524	0,00104
749,707	0,00101
749,889	0,001
750,072	0,00098
750,254	0,00083
750,436	0,001
750,619	0,001
750,801	0,00087
750,983	0,00088
751,165	0,00096
751,348	0,00089
751,53	0,0008
751,712	0,00074
751,894	0,00074
752,076	0,00091
752,259	0,00096
752,441	0,00088
752,623	0,00088
752,805	0,00086
752,987	0,00083
753,169	0,00092
753,351	0,00089
753,533	0,00104
753,715	0,001
753,897	0,00086
754,079	0,00083
754,261	0,00082
754,443	0,00077
754,625	0,0007
754,807	0,00079
754,989	0,00088
755,171	0,00095
755,353	0,00093
755,534	0,00077
755,716	0,0008
755,898	0,00083
756,08	0,0008
756,262	0,00083
756,443	0,00076
756,625	0,00076
756,807	0,00068
756,989	0,00063
757,17	0,0005
757,352	0,00057
757,534	0,00078
757,715	0,00085
757,897	0,00092
758,079	0,00089
758,26	0,00087
758,442	0,00104
758,623	0,00098
758,805	0,00108
758,987	0,00113
759,168	0,00105
759,35	0,00103
759,531	0,00089
759,713	0,00082
759,894	0,00071
760,075	0,00064
760,257	0,00052
760,438	0,00048
760,62	0,00059
760,801	0,00049
760,982	0,00044
761,164	0,00054
761,345	0,00055
761,526	0,00063
761,708	0,00063
761,889	0,00079
762,07	0,00082
762,251	0,00103
762,433	0,0011
762,614	0,001
762,795	0,001
762,976	0,00105
763,157	0,00107
763,338	0,00099
763,52	0,00091
763,701	0,00089
763,882	0,00084
764,063	0,00088
764,244	0,00082
764,425	0,00081
764,606	0,00082
764,787	0,00085
764,968	0,00081
765,149	0,00074
765,33	0,00084
765,511	0,00084
765,692	0,0008
765,873	0,00075
766,053	0,00068
766,234	0,0006
766,415	0,00054
766,596	0,00058
766,777	0,00051
766,958	0,0005
767,138	0,0005
767,319	0,0004
767,5	0,00042
767,681	0,00036
767,861	0,00045
768,042	0,0004
768,223	0,00047
768,403	0,00052
768,584	0,00062
768,765	0,00065
768,945	0,00067
769,126	0,00073
769,307	0,00087
769,487	0,00093
769,668	0,00099
769,848	0,00089
770,029	0,00103
770,209	0,00095
770,39	0,00077
770,57	0,0007
770,751	0,00067
770,931	0,00057
771,111	0,00039
771,292	0,00035
771,472	0,00028
771,653	0,00027
771,833	0,00025
772,013	0,00017
772,194	0,0002
772,374	0,00029
772,554	0,00019
772,734	0,00024
772,915	0,00032
773,095	0,00046
773,275	0,00044
773,455	0,00045
773,635	0,00037
773,816	0,00048
773,996	0,00052
774,176	0,00057
774,356	0,00056
774,536	0,00062
774,716	0,00063
774,896	0,00059
775,076	0,00049
775,256	0,00052
775,436	0,00058
775,616	0,00072
775,796	0,00067
775,976	0,00069
776,156	0,00069
776,336	0,0007
776,516	0,0007
776,696	0,00061
776,876	0,00072
777,056	0,00073
777,235	0,00069
777,415	0,00063
777,595	0,00051
777,775	0,00048
777,955	0,00032
778,134	0,00021
778,314	0,0003
778,494	0,00024
778,674	0,00041
778,853	0,00025
779,033	0,00021
779,213	0,00015
779,392	0,00017
779,572	0,00023
779,751	0,0002
779,931	0,0003
780,111	0,00038
780,29	0,00031
780,47	0,00034
780,649	0,00017
780,829	0,00031
781,008	0,00043
781,188	0,00057
781,367	0,00054
781,546	0,00055
781,726	0,00055
781,905	0,00065
782,085	0,00066
782,264	0,00066
782,443	0,00071
782,623	0,00077
782,802	0,00079
782,981	0,00078
783,161	0,00065
783,34	0,00068
783,519	0,00079
783,698	0,00076
783,878	0,00066
784,057	0,00061
784,236	0,00064
784,415	0,00071
784,594	0,00075
784,773	0,00077
784,952	0,00081
785,132	0,00079
785,311	0,00095
785,49	0,00078
785,669	0,0008
785,848	0,00078
786,027	0,00077
786,206	0,00079
786,385	0,00067
786,564	0,00061
786,743	0,00058
786,922	0,00052
787,1	0,00055
787,279	0,00034
787,458	0,00038
787,637	0,00045
787,816	0,00055
787,995	0,00044
788,174	0,00041
788,352	0,00053
788,531	0,00053
788,71	0,0005
788,889	0,00043
789,067	0,00038
789,246	0,00037
789,425	0,00043
789,603	0,0004
789,782	0,00031
789,961	0,00044
790,139	0,00049
790,318	0,00044
790,496	0,00042
790,675	0,00061
790,853	0,0006
791,032	0,00054
791,211	0,00056
791,389	0,00044
791,568	0,00055
791,746	0,00051
791,924	0,00052
792,103	0,00052
792,281	0,00046
792,46	0,00048
792,638	0,00034
792,816	0,00039
792,995	0,00062
793,173	0,00071
793,351	0,00079
793,53	0,00076
793,708	0,00075
793,886	0,00073
794,064	0,00064
794,243	0,00073
794,421	0,00075
794,599	0,00079
794,777	0,00073
794,955	0,00054
795,133	0,00039
795,312	0,00025
795,49	0,00017
795,668	0,00026
795,846	0,00026
796,024	0,00026
796,202	0,00025
796,38	0,00008
796,558	-0,00012
796,736	-0,00013
796,914	-0
797,092	0,00004
797,27	0,00008
797,448	0,00003
797,626	-0,00004
797,803	-0,00017
797,981	-0,00012
798,159	-0,00011
798,337	-0,00006
798,515	0,0001
798,693	0,00015
798,87	0,00004
799,048	0,00003
799,226	0,00015
799,404	0,0002
799,581	0,00029
799,759	0,00038
799,937	0,00034
800,114	0,00027
800,292	0,00037
800,469	0,00038
800,647	0,00038
800,825	0,00043
801,002	0,00046
801,18	0,00032
801,357	0,00032
801,535	0,00027
801,712	0,0003
801,89	0,00034
802,067	0,00032
802,245	0,00033
802,422	0,00023
802,6	0,00022
802,777	0,0003
802,954	0,00027
803,132	0,00039
803,309	0,00038
803,486	0,00026
803,664	0,00019
803,841	0,00032
804,018	0,00031
804,195	0,00034
804,373	0,00034
804,55	0,00043
804,727	0,00031
804,904	0,00027
805,081	0,0003
805,259	0,00034
805,436	0,00035
805,613	0,00047
805,79	0,00035
805,967	0,00033
806,144	0,00021
806,321	0,00024
806,498	0,00025
806,675	0,00029
806,852	0,00023
807,029	0,00022
807,206	0,0002
807,383	0,00031
807,56	0,00025
807,737	0,00023
807,914	0,00022
808,091	0,00037
808,268	0,00048
808,444	0,00039
808,621	0,00041
808,798	0,00044
808,975	0,00047
809,152	0,00033
809,328	0,00037
809,505	0,00035
809,682	0,00037
809,858	0,00031
810,035	0,00022
810,212	0,00008
810,388	0,00017
810,565	0,00033
810,742	0,00034
810,918	0,00021
811,095	0,00027
811,271	0,0002
811,448	0,00021
811,625	0,00016
811,801	0,0002
811,978	0,00027
812,154	0,00022
812,33	0,00026
812,507	0,00015
812,683	0,0002
812,86	0,00036
813,036	0,0005
813,212	0,00048
813,389	0,00044
813,565	0,00035
813,741	0,00044
813,918	0,00042
814,094	0,00057
814,27	0,00044
814,447	0,00049
814,623	0,00043
814,799	0,00021
814,975	0,00025
815,151	0,00012
815,328	0,00013
815,504	0,00029
815,68	0,00019
815,856	0,00015
816,032	0,00007
816,208	-0,00003
816,384	-0,00019
816,56	-0,00018
816,736	-0,00019
816,912	-0,0004
817,088	-0,00019
817,264	-0,00002
817,44	-0,00014
817,616	-0,00008
817,792	-0,00007
817,968	0,00003
818,144	0,00021
818,32	0,00026
818,495	0,00031
818,671	0,00045
818,847	0,00049
819,023	0,0005
819,199	0,00049
819,374	0,00066
819,55	0,00059
819,726	0,00061
819,902	0,00053
820,077	0,00053
820,253	0,00055
820,429	0,00052
820,604	0,00046
820,78	0,00059
820,956	0,0005
821,131	0,0003
821,307	0,00038
821,482	0,00045
821,658	0,00062
821,833	0,00048
822,009	0,00036
822,184	0,00033
822,36	0,00034
822,535	0,00042
822,711	0,00026
822,886	0,00024
823,061	0,00033
823,237	0,00023
823,412	0,00023
823,587	0,0001
823,763	0,00008
823,938	0,00001
824,113	-0,00002
824,289	-0,00011
824,464	-0,00008
824,639	0,00006
824,814	-0,0001
824,99	-0,00007
825,165	-0,00007
825,34	-0,00002
825,515	-0,0001
825,69	0,00002
825,865	0,00008
826,04	0,00016
826,215	0,00046
826,39	0,00067
826,566	0,00067
826,741	0,001
826,916	0,00101
827,091	0,00097
827,265	0,00091
827,44	0,00099
827,615	0,00104
827,79	0,00098
827,965	0,00104
828,14	0,00095
828,315	0,0008
828,49	0,00075
828,665	0,00069
828,839	0,00051
829,014	0,00048
829,189	0,00046
829,364	0,00037
829,538	0,00042
829,713	0,00058
829,888	0,0005
830,063	0,00041
830,237	0,00022
830,412	0,00022
830,587	0,00015
830,761	0,00046
830,936	0,00044
831,11	0,00037
831,285	0,00042
831,459	0,00047
831,634	0,00035
831,809	0,00043
831,983	0,00036
832,157	0,00053
832,332	0,0006
832,506	0,00063
832,681	0,00047
832,855	0,00032
833,03	0,00044
833,204	0,00049
833,378	0,00044
833,553	0,00048
833,727	0,00043
833,901	0,00042
834,076	0,00049
834,25	0,00042
834,424	0,00049
834,598	0,00057
834,773	0,0007
834,947	0,00084
835,121	0,00074
835,295	0,00069
835,469	0,00064
835,643	0,0005
835,817	0,0005
835,991	0,00017
836,166	0,00007
836,34	0,0001
836,514	0,00006
836,688	0,00024
836,862	0,00011
837,036	0,00009
837,21	0,00006
837,384	0,00009
837,557	0,00017
837,731	0,00036
837,905	0,0006
838,079	0,0006
838,253	0,00038
838,427	0,0002
838,601	0,00017
838,774	0,00016
838,948	0,00027
839,122	0,00031
839,296	0,00032
839,469	0,00047
839,643	0,00029
839,817	0,00002
839,991	0,00009
840,164	0,00017
840,338	0,00025
840,512	0,00025
840,685	0,00036
840,859	0,00031
841,032	0,00021
841,206	0,00029
841,379	0,00027
841,553	0,00037
841,726	0,00071
841,9	0,00089
842,073	0,00104
842,247	0,00116
842,42	0,00096
842,594	0,00097
842,767	0,00093
842,94	0,001
843,114	0,00099
843,287	0,00107
843,46	0,00091
843,634	0,00057
843,807	0,00041
843,98	0,00019
844,154	0,00001
844,327	-0,00002
844,5	-0,00016
844,673	0,00009
844,846	-0,00015
845,02	-0,00016
845,193	-0,00059
845,366	-0,0004
845,539	-0,00028
845,712	-0,0002
845,885	-0,0004
846,058	-0,0004
846,231	-0,00025
846,404	-0,00035
846,577	-0,00048
846,75	-0,00026
846,923	-0,00031
847,096	-0,00001
847,269	0,00002
847,442	0,00007
847,615	0,00011
847,788	0,00024
847,961	0,00051
848,133	0,00045
848,306	0,00054
848,479	0,00047
848,652	0,00053
848,825	0,00055
848,997	0,00044
849,17	0,00031
849,343	0,00034
849,515	0,00021
849,688	0,00039
849,861	0,00035
850,033	0,00038
850,206	0,00047
850,379	0,00044
850,551	0,00043
850,724	0,00045
850,896	0,00035
851,069	0,00046
851,241	0,00039
851,414	0,00052
851,586	0,00033
851,759	0,00022
851,931	0,00013
852,104	0,00016
852,276	0,00019
852,449	0,00006
852,621	0,00015
852,793	0,00017
852,966	0,00029
853,138	0,00037
853,31	0,00021
853,483	0,00027
853,655	0,00021
853,827	0,0001
853,999	0,00001
854,172	0,00006
854,344	0,00007
854,516	-0,00011
854,688	-0,00007
854,86	-0,00028
855,032	-0,0003
855,204	-0,00023
855,377	-0,00017
855,549	-0,00003
855,721	-0,00017
855,893	-0,00021
856,065	-0,00034
856,237	-0,00044
856,409	-0,00033
856,581	-0,00001
856,753	0,00006
856,924	0,00008
857,096	0,00012
857,268	0,00036
857,44	0,00024
857,612	0,00051
857,784	0,00047
857,956	0,00067
858,127	0,00095
858,299	0,00079
858,471	0,00068
858,643	0,00058
858,814	0,00062
858,986	0,00053
859,158	0,00036
859,33	0,00042
859,501	0,00022
859,673	0,00023
859,844	0,00028
860,016	0,00023
860,188	0,00057
860,359	0,00054
860,531	0,00051
860,702	0,00031
860,874	0,00016
861,045	0,00014
861,217	-0,00002
861,388	0,00023
861,56	0,00023
861,731	-0,00004
861,902	-0,00015
862,074	-0,00031
862,245	-0,00023
862,417	-0,00014
862,588	0,00003
862,759	0,00005
862,931	-0,00001
863,102	0,00022
863,273	0,00016
863,444	0,00031
863,616	0,00052
863,787	0,00053
863,958	0,00034
864,129	0,00009
864,3	0,00002
864,471	-0,00002
864,642	0,00028
864,814	0,00006
864,985	-0,00011
865,156	-0,00023
865,327	-0,00052
865,498	-0,00057
865,669	-0,00076
865,84	-0,00051
866,011	-0,00027
866,182	-0,0002
866,353	-0,00042
866,523	-0,00073
866,694	-0,00022
866,865	0,00004
867,036	0,00004
867,207	0,0002
867,378	0,00009
867,549	0,00008
867,719	-0,00019
867,89	-0,00045
868,061	-0,00043
868,232	-0,00024
868,402	-0,00028
868,573	-0,0007
868,744	-0,00068
868,914	-0,00053
869,085	-0,0006
869,256	-0,00059
869,426	-0,0005
869,597	-0,0002
869,767	-0,0001
869,938	-0,00004
870,108	-0,00007
870,279	0,00022
870,449	0,00011
870,62	-0,00006
870,79	-0,00009
870,961	0,00014
871,131	0,00012
871,302	0,00059
871,472	0,00026
871,642	0,00032
871,813	0,00023
871,983	0,00018
872,153	-0,00006
872,324	0,00001
872,494	-0,00005
872,664	-0,00027
872,835	-0,00012
873,005	0,00013
873,175	-0,00016
873,345	0,00006
873,515	-0,00009
873,685	-0,00014
873,856	0,00014
874,026	0,00025
874,196	0,00049
874,366	0,00045
874,536	0,00064
874,706	0,00027
874,876	-0,00003
875,046	-0,00009
875,216	-0,00021
875,386	0,00007
875,556	0,0003
875,726	0,00017
875,896	0,00003
876,066	-0,00006
876,236	-0,00021
876,405	-0,0002
876,575	-0,00015
876,745	-0,00002
876,915	0,00001
877,085	0,00021
877,254	0,00019
877,424	0,00008
877,594	0,00035
877,764	0,00046
877,933	0,00065
878,103	0,00088
878,273	0,00112
878,442	0,00103
878,612	0,00102
878,781	0,00091
878,951	0,00102
879,121	0,00061
879,29	0,00051
879,46	0,00035
879,629	0,00062
879,799	0,00067
879,968	0,00102
880,138	0,00099
880,307	0,00119
880,476	0,00113
880,646	0,00109
880,815	0,00075
880,985	0,00094
881,154	0,00094
881,323	0,00073
881,493	0,00052
881,662	0,00027
881,831	-0,00005
882	-0,00019
882,17	-0,00029
882,339	-0,00044
882,508	-0,00038
882,677	-0
882,846	0,00003
883,016	-0,00012
883,185	-0,00005
883,354	-0,00009
883,523	-0,00004
883,692	-0,00007
883,861	0,00005
884,03	-0,00038
884,199	-0,00021
884,368	0,00041
884,537	-0,00001
884,706	0,00004
884,875	0,00018
885,044	0,00046
885,213	0,00087
885,382	0,00073
885,55	0,00056
885,719	0,0002
885,888	0,00059
886,057	0,00042
886,226	-0,00029
886,395	-0,00008
886,563	-0,0001
886,732	0,00011
886,901	-0,00024
887,069	-0,00043
887,238	-0,00018
887,407	-0,00009
887,575	0,00042
887,744	0,00038
887,913	0,00046
888,081	0,00068
888,25	0,00092
888,418	0,00114
888,587	0,00076
888,755	0,00058
888,924	0,00037
889,092	0,00044
889,261	0,00027
889,429	-0,00001
889,598	0,00017
889,766	0,00031
889,935	0,00027
890,103	-0,00007
890,271	-0,00033
890,44	-0,00028
890,608	-0,00016
890,776	-0,00026
890,944	-0,00049
891,113	-0,00013
891,281	-0,00022
891,449	-0,00023
891,617	-0,00063
891,786	-0,00079
891,954	-0,0007
892,122	-0,00047
892,29	-0,00024
892,458	-0,00044
892,626	-0,00002
892,794	0
892,962	-0,00013
893,13	-0,00002
893,298	-0,00008
893,466	0,00054
