Data from Chemiepractica_Absorbance__5__11-32-13-084.txt Node

Date: Mon Dec 09 11:32:13 CET 2024
User: r0948668
Spectrometer: USB4F07138
Trigger mode: 4
Integration Time (sec): 6,000000E-3
Scans to average: 20
Electric dark correction enabled: true
Nonlinearity correction enabled: false
Boxcar width: 5
XAxis mode: Wavelengths
Number of Pixels in Spectrum: 3648
>>>>>Begin Spectral Data<<<<<
176,779	-0,96252
176,999	-1,80032
177,218	-0,91785
177,438	-0
177,658	-0
177,878	-0
178,097	-0
178,317	-0
178,537	0,13585
178,757	0,0888
178,976	0,3989
179,196	-0,10585
179,416	-0
179,635	0,10343
179,855	0,01496
180,075	-0,00373
180,294	-0,04222
180,514	-0,04422
180,734	0,0061
180,953	0,00484
181,173	0,01229
181,392	-0,00094
181,612	0,01118
181,832	0,02521
182,051	0,00791
182,271	0,01487
182,49	0,01956
182,71	0,02344
182,929	0,03287
183,149	0,0291
183,368	0,04541
183,588	0,03748
183,807	0,04849
184,027	0,05094
184,246	0,05653
184,466	0,06612
184,685	0,07692
184,905	0,07252
185,124	0,07378
185,344	0,07258
185,563	0,07199
185,782	0,07054
186,002	0,07631
186,221	0,07533
186,44	0,07116
186,66	0,05305
186,879	0,05719
187,099	0,03753
187,318	0,03732
187,537	0,03943
187,756	0,03645
187,976	0,02504
188,195	0,02305
188,414	0,02338
188,634	0,02998
188,853	0,03124
189,072	0,04633
189,291	0,03743
189,511	0,04984
189,73	0,06142
189,949	0,06737
190,168	0,06736
190,387	0,08696
190,607	0,08343
190,826	0,08612
191,045	0,07549
191,264	0,06112
191,483	0,04207
191,702	0,04043
191,921	0,03439
192,141	0,03943
192,36	0,03837
192,579	0,04546
192,798	0,03355
193,017	0,03204
193,236	0,0419
193,455	0,04576
193,674	0,0695
193,893	0,07531
194,112	0,0781
194,331	0,07433
194,55	0,06455
194,769	0,05788
194,988	0,04532
195,207	0,04679
195,426	0,04455
195,645	0,02953
195,864	0,02936
196,083	0,0226
196,302	0,01971
196,521	0,02717
196,739	0,03245
196,958	0,02716
197,177	0,03134
197,396	0,04989
197,615	0,04652
197,834	0,04028
198,053	0,04515
198,271	0,03772
198,49	0,05427
198,709	0,06296
198,928	0,05875
199,147	0,06341
199,365	0,08062
199,584	0,07309
199,803	0,04153
200,022	0,03766
200,24	0,03057
200,459	0,02604
200,678	0,03076
200,897	0,02119
201,115	0,01233
201,334	0,01686
201,553	0,00825
201,771	-0,00159
201,99	-0,00725
202,209	0,02155
202,427	0,02187
202,646	0,03163
202,864	0,02965
203,083	0,02627
203,302	0,02443
203,52	0,04306
203,739	0,0401
203,957	0,05512
204,176	0,04857
204,394	0,06894
204,613	0,06413
204,831	0,07679
205,05	0,08699
205,268	0,08862
205,487	0,09351
205,705	0,08182
205,924	0,07734
206,142	0,07599
206,361	0,06947
206,579	0,06937
206,798	0,05077
207,016	0,03546
207,234	0,02897
207,453	0,02358
207,671	0,02565
207,89	0,03274
208,108	0,03751
208,326	0,02401
208,545	0,01766
208,763	0,01392
208,981	0,00844
209,2	-0,00656
209,418	0,00727
209,636	-0,00457
209,855	-0,00344
210,073	0,00335
210,291	-0,00595
210,509	-0,00202
210,728	0,00724
210,946	0,00997
211,164	0,01133
211,382	0,0219
211,6	0,04211
211,819	0,02917
212,037	0,03071
212,255	0,0137
212,473	0,00719
212,691	0,00315
212,909	0,00049
213,128	0,00097
213,346	0,01349
213,564	0,02711
213,782	0,02066
214	0,0491
214,218	0,07119
214,436	0,08015
214,654	0,09187
214,872	0,09227
215,09	0,1048
215,308	0,10257
215,526	0,10149
215,744	0,08908
215,962	0,07321
216,18	0,05843
216,398	0,03055
216,616	0,00787
216,834	0,00171
217,052	0,00841
217,27	-0,00547
217,488	-0,009
217,706	0,00436
217,924	0,01038
218,142	0,01164
218,36	0,01806
218,578	0,0429
218,795	0,03825
219,013	0,03986
219,231	0,04518
219,449	0,03821
219,667	0,04737
219,885	0,04305
220,102	0,03942
220,32	0,0239
220,538	0,03187
220,756	0,02531
220,973	0,02159
221,191	0,03491
221,409	0,03809
221,627	0,03388
221,844	0,0353
222,062	0,04956
222,28	0,04677
222,497	0,04171
222,715	0,05092
222,933	0,03561
223,15	0,03183
223,368	0,03711
223,586	0,04207
223,803	0,05395
224,021	0,06664
224,239	0,06802
224,456	0,05515
224,674	0,05815
224,891	0,06144
225,109	0,06178
225,326	0,07192
225,544	0,08301
225,762	0,06877
225,979	0,05622
226,197	0,0478
226,414	0,03672
226,632	0,03501
226,849	0,02075
227,066	0,0508
227,284	0,04295
227,501	0,05683
227,719	0,05098
227,936	0,05097
228,154	0,06254
228,371	0,06551
228,588	0,06615
228,806	0,07098
229,023	0,07468
229,241	0,09183
229,458	0,07511
229,675	0,08009
229,893	0,06291
230,11	0,07588
230,327	0,06291
230,545	0,05843
230,762	0,05162
230,979	0,06286
231,196	0,06699
231,414	0,05459
231,631	0,05388
231,848	0,04538
232,065	0,04313
232,283	0,04093
232,5	0,02325
232,717	0,02722
232,934	0,01481
233,151	0,01821
233,368	0,00614
233,586	-0,00174
233,803	0,01102
234,02	0,01483
234,237	0,01333
234,454	0,02149
234,671	0,04327
234,888	0,05132
235,105	0,05699
235,322	0,07077
235,54	0,06537
235,757	0,07583
235,974	0,0786
236,191	0,07702
236,408	0,06925
236,625	0,06514
236,842	0,05301
237,059	0,03333
237,276	0,02109
237,493	0,01294
237,71	0,01247
237,926	0,01082
238,143	-0,00122
238,36	-0,00344
238,577	-0,00905
238,794	-0,01311
239,011	-0,00257
239,228	0,00904
239,445	0,00032
239,662	0,0204
239,878	0,03268
240,095	0,03891
240,312	0,05377
240,529	0,0484
240,746	0,04955
240,963	0,05143
241,179	0,0661
241,396	0,07862
241,613	0,07287
241,83	0,09001
242,046	0,07994
242,263	0,086
242,48	0,08963
242,697	0,08055
242,913	0,09272
243,13	0,09338
243,347	0,09494
243,563	0,09399
243,78	0,07901
243,997	0,08035
244,213	0,0785
244,43	0,08549
244,646	0,07814
244,863	0,07007
245,08	0,05924
245,296	0,0624
245,513	0,0552
245,729	0,04969
245,946	0,05114
246,162	0,04761
246,379	0,04578
246,595	0,03344
246,812	0,03694
247,028	0,03928
247,245	0,03336
247,461	0,03019
247,678	0,02483
247,894	0,03546
248,111	0,03787
248,327	0,03257
248,544	0,03321
248,76	0,03784
248,976	0,05464
249,193	0,04328
249,409	0,04027
249,626	0,04111
249,842	0,05705
250,058	0,06166
250,275	0,05257
250,491	0,04926
250,707	0,04634
250,924	0,04909
251,14	0,0434
251,356	0,04063
251,572	0,03879
251,789	0,03553
252,005	0,03747
252,221	0,03756
252,437	0,0207
252,654	0,01932
252,87	0,02055
253,086	0,03535
253,302	0,04665
253,518	0,04667
253,735	0,03432
253,951	0,03095
254,167	0,03758
254,383	0,03512
254,599	0,03516
254,815	0,03984
255,031	0,0354
255,247	0,02506
255,463	0,01618
255,68	0,01381
255,896	0,02292
256,112	0,02127
256,328	0,03385
256,544	0,03092
256,76	0,04212
256,976	0,03184
257,192	0,04564
257,408	0,05669
257,624	0,0667
257,84	0,06066
258,056	0,05357
258,272	0,0371
258,487	0,0445
258,703	0,03454
258,919	0,03521
259,135	0,03318
259,351	0,03316
259,567	0,03265
259,783	0,03614
259,999	0,04339
260,215	0,05206
260,43	0,0412
260,646	0,0507
260,862	0,05522
261,078	0,04921
261,294	0,03855
261,509	0,03057
261,725	0,04001
261,941	0,0327
262,157	0,0318
262,372	0,03081
262,588	0,01589
262,804	0,03306
263,019	0,03072
263,235	0,02596
263,451	0,04094
263,667	0,05572
263,882	0,06529
264,098	0,07165
264,313	0,07365
264,529	0,05966
264,745	0,06418
264,96	0,06379
265,176	0,05807
265,391	0,05834
265,607	0,06201
265,823	0,04601
266,038	0,03645
266,254	0,02766
266,469	0,01928
266,685	0,01863
266,9	0,02713
267,116	0,0291
267,331	0,03992
267,547	0,04334
267,762	0,03973
267,978	0,03294
268,193	0,0414
268,408	0,04674
268,624	0,05698
268,839	0,06324
269,055	0,05938
269,27	0,0636
269,485	0,05458
269,701	0,05716
269,916	0,04693
270,132	0,05616
270,347	0,06932
270,562	0,06302
270,777	0,06535
270,993	0,05838
271,208	0,05663
271,423	0,06462
271,639	0,07336
271,854	0,06679
272,069	0,06187
272,284	0,05893
272,5	0,05595
272,715	0,05073
272,93	0,04371
273,145	0,03452
273,36	0,0454
273,576	0,0441
273,791	0,03507
274,006	0,02521
274,221	0,02985
274,436	0,03605
274,651	0,03871
274,866	0,03779
275,081	0,04222
275,296	0,04981
275,512	0,0479
275,727	0,04123
275,942	0,03602
276,157	0,03552
276,372	0,04596
276,587	0,05038
276,802	0,05082
277,017	0,05099
277,232	0,06102
277,447	0,06161
277,662	0,06558
277,877	0,06289
278,092	0,05384
278,306	0,06351
278,521	0,06792
278,736	0,05263
278,951	0,05294
279,166	0,03804
279,381	0,04123
279,596	0,02551
279,811	0,01005
280,025	0,00455
280,24	0,00782
280,455	0,01338
280,67	0,00443
280,885	0,00649
281,099	0,00242
281,314	-0,00229
281,529	0,01345
281,744	0,02363
281,959	0,03104
282,173	0,03651
282,388	0,04711
282,603	0,05032
282,817	0,0519
283,032	0,06381
283,247	0,05932
283,461	0,06217
283,676	0,05434
283,891	0,04955
284,105	0,04911
284,32	0,05592
284,535	0,06218
284,749	0,05895
284,964	0,06474
285,178	0,06532
285,393	0,06108
285,607	0,058
285,822	0,06182
286,036	0,07629
286,251	0,07926
286,465	0,07254
286,68	0,06454
286,894	0,05801
287,109	0,0576
287,323	0,04999
287,538	0,04858
287,752	0,02954
287,967	0,02944
288,181	0,03328
288,396	0,03953
288,61	0,04504
288,824	0,05285
289,039	0,05511
289,253	0,06546
289,467	0,06546
289,682	0,06171
289,896	0,06577
290,11	0,08826
290,325	0,09365
290,539	0,07638
290,753	0,06239
290,968	0,04632
291,182	0,03385
291,396	0,03355
291,61	0,03032
291,825	0,02985
292,039	0,03637
292,253	0,03292
292,467	0,02488
292,681	0,02627
292,896	0,04134
293,11	0,03841
293,324	0,05057
293,538	0,05856
293,752	0,06885
293,966	0,06737
294,18	0,06656
294,394	0,0569
294,608	0,05467
294,823	0,05361
295,037	0,05701
295,251	0,05182
295,465	0,0645
295,679	0,05151
295,893	0,05221
296,107	0,03982
296,321	0,04238
296,535	0,03582
296,749	0,0406
296,963	0,03518
297,177	0,03373
297,391	0,02752
297,604	0,02335
297,818	0,02074
298,032	0,01827
298,246	0,00013
298,46	0,00438
298,674	0,00659
298,888	0,0181
299,102	0,02347
299,315	0,02758
299,529	0,03525
299,743	0,04408
299,957	0,04725
300,171	0,04161
300,385	0,05702
300,598	0,07595
300,812	0,07639
301,026	0,06805
301,24	0,07543
301,453	0,06928
301,667	0,06261
301,881	0,06366
302,094	0,04889
302,308	0,0526
302,522	0,04916
302,735	0,03989
302,949	0,03232
303,163	0,02424
303,376	0,01869
303,59	0,01591
303,803	0,01714
304,017	0,02565
304,231	0,021
304,444	0,03278
304,658	0,03365
304,871	0,04506
305,085	0,04718
305,298	0,04405
305,512	0,04523
305,725	0,04727
305,939	0,04077
306,152	0,03292
306,366	0,0187
306,579	0,02714
306,793	0,02488
307,006	0,02786
307,22	0,02072
307,433	0,02289
307,646	0,0174
307,86	0,021
308,073	0,03119
308,286	0,01854
308,5	0,02499
308,713	0,03657
308,926	0,03453
309,14	0,03269
309,353	0,02601
309,566	0,02028
309,78	0,01543
309,993	0,0261
310,206	0,02407
310,419	0,02305
310,633	0,0307
310,846	0,03952
311,059	0,04089
311,272	0,03573
311,486	0,03405
311,699	0,03942
311,912	0,04467
312,125	0,04779
312,338	0,04517
312,551	0,04074
312,764	0,03975
312,978	0,04966
313,191	0,04773
313,404	0,04706
313,617	0,04037
313,83	0,04734
314,043	0,04832
314,256	0,05159
314,469	0,04519
314,682	0,05009
314,895	0,05254
315,108	0,05036
315,321	0,04606
315,534	0,0475
315,747	0,05059
315,96	0,06494
316,173	0,05996
316,386	0,05224
316,599	0,05097
316,812	0,05871
317,025	0,05849
317,237	0,05784
317,45	0,05598
317,663	0,05268
317,876	0,046
318,089	0,04202
318,302	0,03087
318,515	0,03391
318,727	0,0332
318,94	0,03181
319,153	0,01667
319,366	0,0169
319,578	0,01867
319,791	0,02503
320,004	0,01712
320,217	0,01797
320,429	0,02499
320,642	0,03118
320,855	0,03173
321,067	0,03028
321,28	0,03191
321,493	0,04559
321,705	0,03865
321,918	0,04024
322,131	0,03009
322,343	0,03756
322,556	0,04516
322,768	0,04048
322,981	0,03305
323,194	0,02739
323,406	0,02586
323,619	0,02199
323,831	0,02182
324,044	0,02883
324,256	0,03151
324,469	0,0299
324,681	0,02579
324,894	0,02087
325,106	0,02082
325,319	0,0155
325,531	0,01979
325,743	0,01745
325,956	0,02471
326,168	0,02853
326,381	0,02785
326,593	0,01918
326,805	0,03231
327,018	0,04207
327,23	0,03395
327,442	0,03705
327,655	0,03883
327,867	0,03608
328,079	0,04417
328,292	0,03432
328,504	0,03604
328,716	0,02863
328,928	0,04171
329,141	0,032
329,353	0,03096
329,565	0,03664
329,777	0,03242
329,99	0,03563
330,202	0,03791
330,414	0,02479
330,626	0,02664
330,838	0,0197
331,05	0,01741
331,263	0,01341
331,475	0,02281
331,687	0,01856
331,899	0,01913
332,111	0,02179
332,323	0,02506
332,535	0,01934
332,747	0,03426
332,959	0,03368
333,171	0,04435
333,383	0,04845
333,595	0,04696
333,807	0,04442
334,019	0,03758
334,231	0,04168
334,443	0,03938
334,655	0,03917
334,867	0,04927
335,079	0,04521
335,291	0,04092
335,503	0,02793
335,714	0,02713
335,926	0,03192
336,138	0,02544
336,35	0,03467
336,562	0,03161
336,774	0,02983
336,986	0,02807
337,197	0,01962
337,409	0,02536
337,621	0,03448
337,833	0,03785
338,044	0,04091
338,256	0,04116
338,468	0,04373
338,68	0,04196
338,891	0,03274
339,103	0,0274
339,315	0,02448
339,526	0,01624
339,738	0,00272
339,95	-0,00536
340,161	0,00707
340,373	0,0018
340,585	-0,00946
340,796	-0,00962
341,008	-0,016
341,219	-0,00526
341,431	0,00072
341,642	0,00674
341,854	0,01824
342,065	0,02925
342,277	0,04056
342,489	0,03089
342,7	0,03608
342,912	0,04049
343,123	0,04057
343,334	0,04243
343,546	0,03389
343,757	0,03445
343,969	0,02443
344,18	0,02047
344,392	0,01486
344,603	0,0242
344,814	0,02974
345,026	0,03238
345,237	0,0352
345,448	0,03425
345,66	0,0368
345,871	0,04108
346,082	0,04359
346,294	0,05033
346,505	0,04948
346,716	0,05151
346,927	0,03593
347,139	0,02823
347,35	0,02356
347,561	0,02645
347,772	0,02616
347,984	0,02687
348,195	0,0336
348,406	0,02295
348,617	0,02512
348,828	0,02636
349,039	0,02554
349,251	0,02192
349,462	0,02173
349,673	0,01391
349,884	0,00697
350,095	0,00622
350,306	0,00942
350,517	0,01255
350,728	0,02391
350,939	0,0241
351,15	0,02861
351,361	0,02355
351,572	0,03261
351,783	0,03378
351,994	0,04683
352,205	0,04831
352,416	0,0491
352,627	0,04819
352,838	0,03792
353,049	0,0381
353,26	0,0392
353,471	0,03482
353,682	0,03925
353,893	0,037
354,103	0,03825
354,314	0,03202
354,525	0,03679
354,736	0,04271
354,947	0,04791
355,157	0,04592
355,368	0,04086
355,579	0,03296
355,79	0,03664
356,001	0,03622
356,211	0,03898
356,422	0,03046
356,633	0,03441
356,843	0,0297
357,054	0,02498
357,265	0,02712
357,476	0,03294
357,686	0,03452
357,897	0,04535
358,107	0,03967
358,318	0,03926
358,529	0,03332
358,739	0,04517
358,95	0,04067
359,16	0,04005
359,371	0,04197
359,582	0,03179
359,792	0,02691
360,003	0,02654
360,213	0,021
360,424	0,02095
360,634	0,02603
360,845	0,02404
361,055	0,02269
361,266	0,02801
361,476	0,03567
361,686	0,0348
361,897	0,03803
362,107	0,03962
362,318	0,03795
362,528	0,04083
362,738	0,04245
362,949	0,04027
363,159	0,04302
363,369	0,03973
363,58	0,0336
363,79	0,02903
364	0,02334
364,211	0,01885
364,421	0,01774
364,631	0,01839
364,842	0,01583
365,052	0,01366
365,262	0,00996
365,472	0,01148
365,682	0,01354
365,893	0,01726
366,103	0,01851
366,313	0,02515
366,523	0,0284
366,733	0,03115
366,943	0,03382
367,154	0,03425
367,364	0,04646
367,574	0,05105
367,784	0,04716
367,994	0,04688
368,204	0,04661
368,414	0,04656
368,624	0,04733
368,834	0,04977
369,044	0,04633
369,254	0,04106
369,464	0,04099
369,674	0,03487
369,884	0,02988
370,094	0,03093
370,304	0,02843
370,514	0,02728
370,724	0,01926
370,934	0,01144
371,144	0,00652
371,353	0,00922
371,563	0,01193
371,773	0,01831
371,983	0,01627
372,193	0,0195
372,403	0,0226
372,612	0,02284
372,822	0,02273
373,032	0,02771
373,242	0,03716
373,452	0,04064
373,661	0,04258
373,871	0,04222
374,081	0,03533
374,29	0,03551
374,5	0,03265
374,71	0,02913
374,92	0,02817
375,129	0,028
375,339	0,02669
375,549	0,01715
375,758	0,01831
375,968	0,01293
376,177	0,01344
376,387	0,01044
376,597	0,01589
376,806	0,01965
377,016	0,02152
377,225	0,02396
377,435	0,02228
377,644	0,02289
377,854	0,02683
378,063	0,02388
378,273	0,02578
378,482	0,0283
378,692	0,03309
378,901	0,02868
379,111	0,02847
379,32	0,03083
379,529	0,02564
379,739	0,02745
379,948	0,03182
380,158	0,03607
380,367	0,03967
380,576	0,04085
380,786	0,03336
380,995	0,03446
381,204	0,03921
381,414	0,03819
381,623	0,03591
381,832	0,04031
382,041	0,04095
382,251	0,0395
382,46	0,03803
382,669	0,0336
382,878	0,03211
383,088	0,03872
383,297	0,03822
383,506	0,03423
383,715	0,03222
383,924	0,03143
384,133	0,0279
384,342	0,02642
384,552	0,02402
384,761	0,02338
384,97	0,0277
385,179	0,03208
385,388	0,02854
385,597	0,0269
385,806	0,02531
386,015	0,02377
386,224	0,02434
386,433	0,02569
386,642	0,02532
386,851	0,02539
387,06	0,02451
387,269	0,02269
387,478	0,02146
387,687	0,02396
387,896	0,02555
388,105	0,02439
388,314	0,02237
388,523	0,0205
388,731	0,0224
388,94	0,02246
389,149	0,02152
389,358	0,02339
389,567	0,02646
389,776	0,02203
389,984	0,01984
390,193	0,01883
390,402	0,01851
390,611	0,02441
390,819	0,02394
391,028	0,02354
391,237	0,02418
391,446	0,02292
391,654	0,02122
391,863	0,01785
392,072	0,02019
392,28	0,02123
392,489	0,02341
392,698	0,02224
392,906	0,02019
393,115	0,02039
393,324	0,01955
393,532	0,01809
393,741	0,01665
393,949	0,01717
394,158	0,01599
394,366	0,01606
394,575	0,01537
394,783	0,01072
394,992	0,01282
395,2	0,01032
395,409	0,01222
395,617	0,01077
395,826	0,01205
396,034	0,01361
396,243	0,01286
396,451	0,01445
396,66	0,01699
396,868	0,01753
397,076	0,01862
397,285	0,01445
397,493	0,01548
397,701	0,01522
397,91	0,01625
398,118	0,01532
398,326	0,01689
398,535	0,0136
398,743	0,01284
398,951	0,01088
399,159	0,01156
399,368	0,01458
399,576	0,01944
399,784	0,0217
399,992	0,01923
400,201	0,01912
400,409	0,01751
400,617	0,01826
400,825	0,02361
401,033	0,02412
401,241	0,02336
401,45	0,02436
401,658	0,02451
401,866	0,02471
402,074	0,02401
402,282	0,02641
402,49	0,02523
402,698	0,02883
402,906	0,02716
403,114	0,02587
403,322	0,02394
403,53	0,0255
403,738	0,02434
403,946	0,01833
404,154	0,01586
404,362	0,01633
404,57	0,01584
404,778	0,01484
404,986	0,01389
405,194	0,01345
405,402	0,01351
405,609	0,01286
405,817	0,00909
406,025	0,01046
406,233	0,0172
406,441	0,02009
406,649	0,02
406,856	0,01995
407,064	0,01992
407,272	0,02153
407,48	0,02292
407,687	0,0226
407,895	0,02573
408,103	0,02758
408,311	0,02568
408,518	0,02422
408,726	0,02222
408,934	0,022
409,141	0,02169
409,349	0,02152
409,557	0,01962
409,764	0,01921
409,972	0,01646
410,18	0,0133
410,387	0,01434
410,595	0,01479
410,802	0,01259
411,01	0,01328
411,217	0,01209
411,425	0,01309
411,632	0,01316
411,84	0,01398
412,047	0,01201
412,255	0,01301
412,462	0,01597
412,67	0,01462
412,877	0,01527
413,085	0,01483
413,292	0,01359
413,499	0,01558
413,707	0,01433
413,914	0,01544
414,122	0,01301
414,329	0,01461
414,536	0,01472
414,744	0,01281
414,951	0,01376
415,158	0,0122
415,366	0,01319
415,573	0,01406
415,78	0,01236
415,987	0,01162
416,195	0,0127
416,402	0,01291
416,609	0,0144
416,816	0,01518
417,023	0,01727
417,231	0,01752
417,438	0,01881
417,645	0,01737
417,852	0,01704
418,059	0,01819
418,266	0,01774
418,473	0,0161
418,68	0,0182
418,888	0,01748
419,095	0,01904
419,302	0,0186
419,509	0,01684
419,716	0,01653
419,923	0,01779
420,13	0,0183
420,337	0,01815
420,544	0,01972
420,751	0,02072
420,958	0,02108
421,165	0,02062
421,371	0,01717
421,578	0,01604
421,785	0,01675
421,992	0,01668
422,199	0,01695
422,406	0,01807
422,613	0,01703
422,82	0,0165
423,026	0,01604
423,233	0,01498
423,44	0,01404
423,647	0,01545
423,854	0,01558
424,06	0,0162
424,267	0,01583
424,474	0,01532
424,681	0,01468
424,887	0,01578
425,094	0,01565
425,301	0,01736
425,507	0,01665
425,714	0,01664
425,921	0,01578
426,127	0,01543
426,334	0,01541
426,54	0,01586
426,747	0,01615
426,954	0,01534
427,16	0,01522
427,367	0,01469
427,573	0,01337
427,78	0,01367
427,986	0,01422
428,193	0,01387
428,399	0,01578
428,606	0,01493
428,812	0,01505
429,019	0,01433
429,225	0,01489
429,432	0,01527
429,638	0,01576
429,845	0,0153
430,051	0,01618
430,257	0,01474
430,464	0,01554
430,67	0,01435
430,876	0,01566
431,083	0,01552
431,289	0,01613
431,495	0,01614
431,702	0,01514
431,908	0,01462
432,114	0,01392
432,32	0,01301
432,527	0,01393
432,733	0,01385
432,939	0,0137
433,145	0,01303
433,351	0,01352
433,558	0,01393
433,764	0,01413
433,97	0,01403
434,176	0,0145
434,382	0,01693
434,588	0,01738
434,794	0,01728
435,001	0,01828
435,207	0,01794
435,413	0,01789
435,619	0,01761
435,825	0,01749
436,031	0,01755
436,237	0,01795
436,443	0,01774
436,649	0,01729
436,855	0,01785
437,061	0,01881
437,267	0,01841
437,473	0,01843
437,679	0,01932
437,884	0,01843
438,09	0,01772
438,296	0,01632
438,502	0,01588
438,708	0,01651
438,914	0,0153
439,12	0,0149
439,325	0,01458
439,531	0,0155
439,737	0,01633
439,943	0,01558
440,149	0,01591
440,354	0,01627
440,56	0,01725
440,766	0,01693
440,972	0,017
441,177	0,01785
441,383	0,018
441,589	0,01803
441,794	0,01688
442	0,01624
442,206	0,0162
442,411	0,01647
442,617	0,01658
442,822	0,01645
443,028	0,01655
443,234	0,01741
443,439	0,0176
443,645	0,01726
443,85	0,01682
444,056	0,01733
444,261	0,01813
444,467	0,01834
444,672	0,01836
444,878	0,01848
445,083	0,0188
445,289	0,01895
445,494	0,01802
445,699	0,01798
445,905	0,01875
446,11	0,02014
446,316	0,02045
446,521	0,02001
446,726	0,02015
446,932	0,02007
447,137	0,02014
447,342	0,02004
447,548	0,02021
447,753	0,02052
447,958	0,02031
448,164	0,01935
448,369	0,01898
448,574	0,01815
448,779	0,01852
448,984	0,01871
449,19	0,01912
449,395	0,01905
449,6	0,01879
449,805	0,01915
450,01	0,01897
450,215	0,0192
450,421	0,0202
450,626	0,01997
450,831	0,01996
451,036	0,01916
451,241	0,01995
451,446	0,01983
451,651	0,01996
451,856	0,02064
452,061	0,02086
452,266	0,02143
452,471	0,02176
452,676	0,02225
452,881	0,02271
453,086	0,02374
453,291	0,02446
453,496	0,02368
453,701	0,02368
453,906	0,024
454,111	0,02353
454,316	0,02363
454,52	0,02336
454,725	0,02271
454,93	0,02261
455,135	0,02291
455,34	0,02265
455,545	0,02312
455,749	0,02303
455,954	0,02301
456,159	0,02273
456,364	0,02355
456,568	0,02432
456,773	0,02491
456,978	0,02653
457,182	0,02674
457,387	0,0271
457,592	0,02706
457,796	0,02709
458,001	0,0282
458,206	0,02842
458,41	0,02915
458,615	0,02867
458,82	0,0286
459,024	0,02923
459,229	0,02835
459,433	0,02835
459,638	0,02809
459,842	0,02916
460,047	0,02871
460,251	0,02817
460,456	0,0279
460,66	0,02783
460,865	0,02858
461,069	0,02791
461,274	0,02766
461,478	0,02763
461,682	0,02693
461,887	0,02676
462,091	0,02619
462,296	0,02701
462,5	0,0276
462,704	0,0283
462,909	0,02822
463,113	0,02742
463,317	0,02831
463,522	0,02878
463,726	0,02939
463,93	0,03037
464,134	0,03104
464,339	0,03119
464,543	0,0314
464,747	0,03174
464,951	0,03256
465,155	0,0327
465,36	0,03421
465,564	0,0341
465,768	0,0336
465,972	0,03459
466,176	0,03455
466,38	0,03478
466,584	0,03598
466,788	0,0362
466,993	0,03614
467,197	0,036
467,401	0,03686
467,605	0,03648
467,809	0,0372
468,013	0,0383
468,217	0,03794
468,421	0,03812
468,625	0,0385
468,829	0,03797
469,033	0,03786
469,236	0,03852
469,44	0,03825
469,644	0,03785
469,848	0,0381
470,052	0,03859
470,256	0,03778
470,46	0,03759
470,664	0,03799
470,867	0,03814
471,071	0,0386
471,275	0,03892
471,479	0,03876
471,683	0,03935
471,886	0,04022
472,09	0,04044
472,294	0,04019
472,497	0,04063
472,701	0,04093
472,905	0,04157
473,109	0,04221
473,312	0,04258
473,516	0,0433
473,719	0,04377
473,923	0,04428
474,127	0,0445
474,33	0,04469
474,534	0,0454
474,737	0,04603
474,941	0,0465
475,145	0,04635
475,348	0,04624
475,552	0,0464
475,755	0,04649
475,959	0,04699
476,162	0,04727
476,366	0,04741
476,569	0,0475
476,772	0,04758
476,976	0,04793
477,179	0,04858
477,383	0,04876
477,586	0,04889
477,789	0,04912
477,993	0,04958
478,196	0,04972
478,399	0,0502
478,603	0,05071
478,806	0,05167
479,009	0,05206
479,213	0,05183
479,416	0,05158
479,619	0,05265
479,822	0,05322
480,026	0,05391
480,229	0,05385
480,432	0,05449
480,635	0,05435
480,838	0,05489
481,041	0,05455
481,245	0,05466
481,448	0,05523
481,651	0,05611
481,854	0,05605
482,057	0,05627
482,26	0,05681
482,463	0,05771
482,666	0,05802
482,869	0,05879
483,072	0,05909
483,275	0,06
483,478	0,06035
483,681	0,06121
483,884	0,06119
484,087	0,06175
484,29	0,06254
484,493	0,06289
484,696	0,06317
484,899	0,0637
485,102	0,06396
485,305	0,06411
485,508	0,06473
485,71	0,0655
485,913	0,06568
486,116	0,06643
486,319	0,06718
486,522	0,0674
486,725	0,06743
486,927	0,06812
487,13	0,06841
487,333	0,06896
487,536	0,06973
487,738	0,0702
487,941	0,07052
488,144	0,071
488,346	0,07118
488,549	0,07116
488,752	0,07159
488,954	0,07247
489,157	0,07233
489,359	0,0727
489,562	0,07306
489,765	0,07337
489,967	0,07365
490,17	0,07423
490,372	0,07481
490,575	0,07546
490,777	0,07613
490,98	0,07664
491,182	0,07671
491,385	0,07763
491,587	0,07833
491,79	0,07925
491,992	0,07953
492,195	0,08019
492,397	0,08055
492,599	0,08088
492,802	0,08156
493,004	0,08208
493,207	0,08258
493,409	0,08338
493,611	0,08378
493,814	0,08418
494,016	0,08429
494,218	0,08487
494,42	0,08543
494,623	0,08599
494,825	0,08671
495,027	0,08684
495,229	0,08726
495,432	0,08766
495,634	0,08839
495,836	0,08889
496,038	0,08937
496,24	0,08981
496,442	0,0905
496,645	0,09084
496,847	0,09148
497,049	0,09196
497,251	0,09287
497,453	0,09352
497,655	0,09439
497,857	0,09494
498,059	0,09581
498,261	0,09636
498,463	0,09744
498,665	0,09814
498,867	0,09884
499,069	0,09946
499,271	0,10013
499,473	0,10086
499,675	0,10152
499,877	0,10198
500,079	0,10262
500,281	0,10295
500,482	0,10389
500,684	0,10424
500,886	0,10487
501,088	0,10551
501,29	0,10634
501,492	0,10697
501,693	0,10753
501,895	0,10828
502,097	0,10899
502,299	0,1095
502,5	0,11021
502,702	0,11077
502,904	0,11174
503,106	0,11246
503,307	0,11329
503,509	0,11393
503,711	0,1146
503,912	0,11567
504,114	0,11624
504,315	0,117
504,517	0,1178
504,719	0,11854
504,92	0,11929
505,122	0,11972
505,323	0,12035
505,525	0,12094
505,726	0,12174
505,928	0,12259
506,129	0,12306
506,331	0,12384
506,532	0,12466
506,734	0,12532
506,935	0,12629
507,137	0,12671
507,338	0,12744
507,539	0,12803
507,741	0,12896
507,942	0,1295
508,143	0,13029
508,345	0,13094
508,546	0,13159
508,747	0,13232
508,949	0,13328
509,15	0,13353
509,351	0,13446
509,553	0,13527
509,754	0,13625
509,955	0,13668
510,156	0,13793
510,357	0,13856
510,559	0,1393
510,76	0,14024
510,961	0,14099
511,162	0,14176
511,363	0,14296
511,564	0,1438
511,766	0,14475
511,967	0,14586
512,168	0,14693
512,369	0,14759
512,57	0,14859
512,771	0,14977
512,972	0,15061
513,173	0,15157
513,374	0,15236
513,575	0,15316
513,776	0,15417
513,977	0,15483
514,178	0,15556
514,379	0,1564
514,58	0,15716
514,781	0,15814
514,981	0,1588
515,182	0,15955
515,383	0,16048
515,584	0,16143
515,785	0,16246
515,986	0,16333
516,187	0,16448
516,387	0,16527
516,588	0,16627
516,789	0,16729
516,99	0,16818
517,19	0,16909
517,391	0,17024
517,592	0,17131
517,793	0,17231
517,993	0,17334
518,194	0,17424
518,395	0,17525
518,595	0,17613
518,796	0,17724
518,996	0,17815
519,197	0,17911
519,398	0,1802
519,598	0,18137
519,799	0,18208
519,999	0,1829
520,2	0,18388
520,4	0,18482
520,601	0,18599
520,801	0,18702
521,002	0,1879
521,202	0,18889
521,403	0,18978
521,603	0,19075
521,804	0,19132
522,004	0,1923
522,204	0,19335
522,405	0,19431
522,605	0,19527
522,806	0,19601
523,006	0,19695
523,206	0,19777
523,407	0,19882
523,607	0,19978
523,807	0,20092
524,007	0,20187
524,208	0,20284
524,408	0,20371
524,608	0,20464
524,808	0,20576
525,009	0,20665
525,209	0,20753
525,409	0,20863
525,609	0,20945
525,809	0,21052
526,009	0,21146
526,209	0,21261
526,41	0,21375
526,61	0,21496
526,81	0,21596
527,01	0,21671
527,21	0,21764
527,41	0,21885
527,61	0,21953
527,81	0,22041
528,01	0,2212
528,21	0,22196
528,41	0,22259
528,61	0,22348
528,81	0,22423
529,01	0,22499
529,21	0,22608
529,41	0,22683
529,609	0,22742
529,809	0,22817
530,009	0,22909
530,209	0,23
530,409	0,23071
530,609	0,2319
530,808	0,23251
531,008	0,23331
531,208	0,23396
531,408	0,23482
531,608	0,23579
531,807	0,23676
532,007	0,23785
532,207	0,23857
532,406	0,23914
532,606	0,24018
532,806	0,24085
533,005	0,24153
533,205	0,24197
533,405	0,24284
533,604	0,24355
533,804	0,2443
534,003	0,24507
534,203	0,24578
534,403	0,24645
534,602	0,24733
534,802	0,24782
535,001	0,24855
535,201	0,2494
535,4	0,25018
535,6	0,25083
535,799	0,25156
535,998	0,25218
536,198	0,25279
536,397	0,25355
536,597	0,25435
536,796	0,2551
536,995	0,25573
537,195	0,25644
537,394	0,2573
537,594	0,25817
537,793	0,25899
537,992	0,25972
538,191	0,26032
538,391	0,26114
538,59	0,26172
538,789	0,26236
538,988	0,2628
539,188	0,2635
539,387	0,2641
539,586	0,26455
539,785	0,26513
539,984	0,26573
540,184	0,26622
540,383	0,26706
540,582	0,2673
540,781	0,26809
540,98	0,26861
541,179	0,2694
541,378	0,27001
541,577	0,27054
541,776	0,27109
541,975	0,27161
542,174	0,27215
542,373	0,27261
542,572	0,27286
542,771	0,27358
542,97	0,27384
543,169	0,27442
543,368	0,27495
543,567	0,27547
543,766	0,2759
543,965	0,27646
544,164	0,27703
544,362	0,2774
544,561	0,27788
544,76	0,27858
544,959	0,2792
545,158	0,27975
545,356	0,28015
545,555	0,28062
545,754	0,28095
545,953	0,28142
546,151	0,28201
546,35	0,28237
546,549	0,28271
546,748	0,28304
546,946	0,28323
547,145	0,28342
547,344	0,28386
547,542	0,28428
547,741	0,28445
547,939	0,28469
548,138	0,28494
548,337	0,28506
548,535	0,28535
548,734	0,28557
548,932	0,28589
549,131	0,28609
549,329	0,28646
549,528	0,28654
549,726	0,28667
549,925	0,28701
550,123	0,28746
550,322	0,28772
550,52	0,2882
550,718	0,28857
550,917	0,28905
551,115	0,28937
551,313	0,28989
551,512	0,29012
551,71	0,2905
551,908	0,2907
552,107	0,29117
552,305	0,29149
552,503	0,29176
552,702	0,29165
552,9	0,29189
553,098	0,29216
553,296	0,29258
553,495	0,29275
553,693	0,29308
553,891	0,29346
554,089	0,29383
554,287	0,29395
554,485	0,29406
554,683	0,29446
554,882	0,29489
555,08	0,29519
555,278	0,2955
555,476	0,29555
555,674	0,29598
555,872	0,29629
556,07	0,29652
556,268	0,29701
556,466	0,2973
556,664	0,29795
556,862	0,29812
557,06	0,29867
557,258	0,2991
557,456	0,29951
557,654	0,3001
557,851	0,30035
558,049	0,3007
558,247	0,30115
558,445	0,30152
558,643	0,30194
558,841	0,30203
559,039	0,30266
559,236	0,3029
559,434	0,30332
559,632	0,3035
559,83	0,30392
560,027	0,30439
560,225	0,30493
560,423	0,3054
560,62	0,30572
560,818	0,30608
561,016	0,30662
561,213	0,30706
561,411	0,30763
561,609	0,3081
561,806	0,3087
562,004	0,30889
562,202	0,30954
562,399	0,31003
562,597	0,31051
562,794	0,31098
562,992	0,31162
563,189	0,31231
563,387	0,3129
563,584	0,31359
563,782	0,31397
563,979	0,31443
564,177	0,31529
564,374	0,31573
564,571	0,31623
564,769	0,31651
564,966	0,31694
565,164	0,31746
565,361	0,31796
565,558	0,31842
565,756	0,31888
565,953	0,31964
566,15	0,32034
566,347	0,32077
566,545	0,32136
566,742	0,32195
566,939	0,32276
567,136	0,32356
567,334	0,32426
567,531	0,32477
567,728	0,32538
567,925	0,32598
568,122	0,32677
568,319	0,32764
568,517	0,32852
568,714	0,32924
568,911	0,33003
569,108	0,33101
569,305	0,33184
569,502	0,33253
569,699	0,33355
569,896	0,33437
570,093	0,33518
570,29	0,33606
570,487	0,33679
570,684	0,33779
570,881	0,33868
571,078	0,33971
571,275	0,34047
571,472	0,34136
571,669	0,34222
571,866	0,343
572,062	0,34417
572,259	0,34512
572,456	0,34568
572,653	0,3466
572,85	0,34717
573,047	0,34804
573,243	0,34869
573,44	0,34938
573,637	0,35019
573,834	0,35111
574,03	0,35202
574,227	0,35258
574,424	0,35347
574,62	0,35445
574,817	0,35538
575,014	0,35637
575,21	0,35717
575,407	0,35818
575,604	0,35922
575,8	0,36036
575,997	0,36149
576,193	0,36238
576,39	0,36346
576,586	0,36443
576,783	0,36537
576,979	0,36618
577,176	0,3672
577,372	0,36826
577,569	0,36931
577,765	0,37031
577,962	0,37118
578,158	0,37208
578,355	0,37314
578,551	0,37408
578,747	0,37499
578,944	0,37595
579,14	0,37682
579,336	0,37785
579,533	0,37882
579,729	0,37964
579,925	0,38058
580,122	0,38141
580,318	0,38213
580,514	0,3829
580,71	0,38381
580,906	0,38482
581,103	0,38587
581,299	0,38697
581,495	0,38758
581,691	0,38833
581,887	0,38928
582,084	0,39011
582,28	0,39102
582,476	0,39189
582,672	0,3928
582,868	0,39358
583,064	0,39433
583,26	0,395
583,456	0,39563
583,652	0,39648
583,848	0,39738
584,044	0,39805
584,24	0,39849
584,436	0,39915
584,632	0,39964
584,828	0,40026
585,024	0,40084
585,22	0,40134
585,416	0,40179
585,611	0,4024
585,807	0,40287
586,003	0,40345
586,199	0,40378
586,395	0,40421
586,591	0,40451
586,786	0,40512
586,982	0,40542
587,178	0,40569
587,374	0,40576
587,569	0,40605
587,765	0,40613
587,961	0,40647
588,156	0,40652
588,352	0,40673
588,548	0,40704
588,743	0,40724
588,939	0,4071
589,135	0,4071
589,33	0,40716
589,526	0,40743
589,721	0,40749
589,917	0,40729
590,112	0,4072
590,308	0,40701
590,503	0,40685
590,699	0,40655
590,894	0,4063
591,09	0,40619
591,285	0,40584
591,481	0,40548
591,676	0,40513
591,872	0,40464
592,067	0,40432
592,262	0,40379
592,458	0,40329
592,653	0,40275
592,848	0,40227
593,044	0,40174
593,239	0,40116
593,434	0,40059
593,629	0,39993
593,825	0,39913
594,02	0,39842
594,215	0,39769
594,41	0,39683
594,606	0,396
594,801	0,39514
594,996	0,39439
595,191	0,39347
595,386	0,39263
595,581	0,3916
595,777	0,39072
595,972	0,38971
596,167	0,38863
596,362	0,38749
596,557	0,38638
596,752	0,3854
596,947	0,38427
597,142	0,38297
597,337	0,38162
597,532	0,3802
597,727	0,37883
597,922	0,37743
598,117	0,37598
598,312	0,37452
598,507	0,37313
598,701	0,37145
598,896	0,36971
599,091	0,3682
599,286	0,36669
599,481	0,36501
599,676	0,36349
599,87	0,36188
600,065	0,35996
600,26	0,35822
600,455	0,35646
600,65	0,35462
600,844	0,353
601,039	0,35111
601,234	0,34912
601,428	0,34742
601,623	0,34548
601,818	0,34352
602,012	0,34176
602,207	0,34
602,402	0,33805
602,596	0,33603
602,791	0,33419
602,985	0,33227
603,18	0,33028
603,374	0,32825
603,569	0,3261
603,763	0,32431
603,958	0,32219
604,152	0,31996
604,347	0,3178
604,541	0,31574
604,736	0,31369
604,93	0,31139
605,125	0,30904
605,319	0,30695
605,513	0,30462
605,708	0,30239
605,902	0,29997
606,096	0,29776
606,291	0,29553
606,485	0,29334
606,679	0,2912
606,874	0,28896
607,068	0,28682
607,262	0,28462
607,456	0,28239
607,65	0,28023
607,845	0,27781
608,039	0,27564
608,233	0,27335
608,427	0,2711
608,621	0,2688
608,815	0,26641
609,01	0,2641
609,204	0,26185
609,398	0,25968
609,592	0,25746
609,786	0,25527
609,98	0,25317
610,174	0,25099
610,368	0,24881
610,562	0,24654
610,756	0,24423
610,95	0,24212
611,144	0,23998
611,338	0,23772
611,532	0,23543
611,726	0,23319
611,919	0,23106
612,113	0,22878
612,307	0,22642
612,501	0,224
612,695	0,22182
612,889	0,21971
613,082	0,21757
613,276	0,21533
613,47	0,21324
613,664	0,21091
613,857	0,20845
614,051	0,20628
614,245	0,20405
614,439	0,20195
614,632	0,2001
614,826	0,19789
615,02	0,19574
615,213	0,19368
615,407	0,19168
615,6	0,18945
615,794	0,18749
615,988	0,18561
616,181	0,18353
616,375	0,18161
616,568	0,17962
616,762	0,17757
616,955	0,17568
617,149	0,17376
617,342	0,17153
617,536	0,16953
617,729	0,16765
617,923	0,16576
618,116	0,16385
618,309	0,16183
618,503	0,15997
618,696	0,15809
618,889	0,15622
619,083	0,15423
619,276	0,15234
619,469	0,15049
619,663	0,14871
619,856	0,14692
620,049	0,1452
620,242	0,1436
620,436	0,14182
620,629	0,14012
620,822	0,13853
621,015	0,13676
621,209	0,13523
621,402	0,13354
621,595	0,13201
621,788	0,13044
621,981	0,12893
622,174	0,12739
622,367	0,12569
622,56	0,12424
622,753	0,12255
622,946	0,12091
623,139	0,11941
623,332	0,11797
623,525	0,11653
623,718	0,11501
623,911	0,11349
624,104	0,11187
624,297	0,11029
624,49	0,10898
624,683	0,1076
624,876	0,10635
625,069	0,10497
625,262	0,10377
625,454	0,10234
625,647	0,1011
625,84	0,0998
626,033	0,09859
626,226	0,09739
626,418	0,09611
626,611	0,09485
626,804	0,09361
626,997	0,09221
627,189	0,09102
627,382	0,0897
627,575	0,08852
627,767	0,08735
627,96	0,08623
628,153	0,08494
628,345	0,08384
628,538	0,08276
628,731	0,08153
628,923	0,08053
629,116	0,07966
629,308	0,0785
629,501	0,07741
629,693	0,07644
629,886	0,07531
630,078	0,07428
630,271	0,07339
630,463	0,07237
630,656	0,07137
630,848	0,07046
631,04	0,06943
631,233	0,0685
631,425	0,06764
631,617	0,06674
631,81	0,06574
632,002	0,06485
632,194	0,06399
632,387	0,06306
632,579	0,06221
632,771	0,06138
632,964	0,06055
633,156	0,05964
633,348	0,05869
633,54	0,05799
633,732	0,05719
633,925	0,05657
634,117	0,05593
634,309	0,0552
634,501	0,05454
634,693	0,05378
634,885	0,05304
635,077	0,0523
635,269	0,05161
635,462	0,05095
635,654	0,05029
635,846	0,04975
636,038	0,04897
636,23	0,04829
636,422	0,04764
636,614	0,04676
636,806	0,0462
636,997	0,04574
637,189	0,04514
637,381	0,04453
637,573	0,04399
637,765	0,04325
637,957	0,04251
638,149	0,04191
638,341	0,04131
638,532	0,0408
638,724	0,04038
638,916	0,0398
639,108	0,03916
639,299	0,03878
639,491	0,03823
639,683	0,03773
639,875	0,03734
640,066	0,03688
640,258	0,03638
640,45	0,03581
640,641	0,03535
640,833	0,03488
641,025	0,03443
641,216	0,03388
641,408	0,0333
641,599	0,03298
641,791	0,03254
641,982	0,03197
642,174	0,03156
642,366	0,03123
642,557	0,03078
642,748	0,03024
642,94	0,02983
643,131	0,02934
643,323	0,02904
643,514	0,02865
643,706	0,02832
643,897	0,02792
644,088	0,02761
644,28	0,02729
644,471	0,02689
644,662	0,02674
644,854	0,0265
645,045	0,02617
645,236	0,02587
645,428	0,02554
645,619	0,02515
645,81	0,02476
646,001	0,02428
646,193	0,02401
646,384	0,02359
646,575	0,02328
646,766	0,02292
646,957	0,02253
647,148	0,02226
647,339	0,02199
647,531	0,02172
647,722	0,02148
647,913	0,0211
648,104	0,02094
648,295	0,02063
648,486	0,02043
648,677	0,02013
648,868	0,01982
649,059	0,01962
649,25	0,01939
649,441	0,0191
649,632	0,01878
649,823	0,01871
650,013	0,01855
650,204	0,01833
650,395	0,01807
650,586	0,01792
650,777	0,01766
650,968	0,01743
651,159	0,01717
651,349	0,01684
651,54	0,01656
651,731	0,01631
651,922	0,016
652,112	0,01578
652,303	0,01552
652,494	0,01543
652,684	0,0151
652,875	0,01498
653,066	0,01476
653,256	0,01456
653,447	0,01449
653,638	0,01441
653,828	0,01427
654,019	0,01409
654,209	0,01396
654,4	0,01389
654,59	0,01378
654,781	0,01379
654,972	0,0136
655,162	0,0136
655,352	0,01349
655,543	0,01324
655,733	0,01307
655,924	0,01299
656,114	0,01284
656,305	0,01264
656,495	0,0125
656,685	0,01221
656,876	0,01198
657,066	0,0119
657,256	0,01177
657,447	0,01163
657,637	0,01155
657,827	0,01143
658,017	0,01133
658,208	0,01124
658,398	0,01107
658,588	0,01095
658,778	0,0109
658,968	0,01078
659,159	0,01074
659,349	0,01049
659,539	0,01034
659,729	0,01031
659,919	0,01032
660,109	0,01017
660,299	0,01009
660,489	0,01014
660,679	0,00995
660,869	0,00976
661,059	0,00974
661,249	0,00951
661,439	0,00943
661,629	0,00939
661,819	0,00936
662,009	0,00914
662,199	0,00906
662,389	0,00892
662,579	0,00873
662,769	0,00859
662,959	0,00857
663,149	0,00843
663,338	0,00841
663,528	0,00848
663,718	0,00839
663,908	0,0081
664,097	0,00794
664,287	0,00782
664,477	0,00777
664,667	0,00768
664,856	0,00773
665,046	0,00762
665,236	0,00758
665,425	0,0075
665,615	0,00737
665,805	0,00736
665,994	0,0074
666,184	0,00746
666,373	0,00751
666,563	0,00737
666,753	0,00743
666,942	0,00727
667,132	0,00709
667,321	0,00692
667,511	0,00681
667,7	0,0067
667,889	0,00648
668,079	0,00647
668,268	0,00646
668,458	0,00629
668,647	0,00633
668,836	0,00613
669,026	0,00615
669,215	0,00613
669,404	0,00626
669,594	0,00623
669,783	0,00617
669,972	0,00624
670,162	0,00616
670,351	0,00599
670,54	0,00589
670,729	0,00573
670,919	0,00575
671,108	0,00568
671,297	0,00573
671,486	0,00556
671,675	0,00546
671,864	0,00542
672,053	0,00535
672,243	0,0053
672,432	0,00533
672,621	0,00533
672,81	0,00531
672,999	0,00524
673,188	0,00531
673,377	0,00529
673,566	0,00526
673,755	0,00524
673,944	0,00514
674,133	0,00505
674,322	0,00501
674,51	0,00496
674,699	0,00491
674,888	0,00483
675,077	0,00478
675,266	0,00461
675,455	0,00457
675,644	0,00447
675,832	0,00436
676,021	0,00431
676,21	0,00436
676,399	0,00425
676,587	0,00422
676,776	0,00421
676,965	0,00418
677,153	0,00416
677,342	0,00417
677,531	0,00412
677,719	0,00412
677,908	0,00424
678,097	0,00426
678,285	0,0042
678,474	0,0042
678,662	0,00421
678,851	0,00422
679,039	0,00422
679,228	0,00421
679,416	0,00417
679,605	0,00419
679,793	0,00422
679,982	0,00412
680,17	0,00405
680,359	0,00413
680,547	0,00412
680,736	0,00408
680,924	0,00411
681,112	0,00411
681,301	0,00421
681,489	0,00418
681,677	0,00411
681,866	0,00404
682,054	0,00399
682,242	0,00399
682,43	0,00394
682,619	0,00389
682,807	0,00374
682,995	0,00356
683,183	0,00348
683,371	0,00347
683,559	0,00346
683,748	0,00347
683,936	0,00344
684,124	0,00345
684,312	0,00347
684,5	0,00329
684,688	0,00335
684,876	0,00337
685,064	0,00346
685,252	0,00344
685,44	0,00332
685,628	0,0033
685,816	0,00333
686,004	0,00333
686,192	0,00332
686,38	0,00332
686,568	0,00334
686,756	0,00322
686,944	0,00332
687,131	0,00332
687,319	0,00335
687,507	0,00333
687,695	0,00324
687,883	0,00319
688,07	0,00322
688,258	0,00325
688,446	0,00317
688,634	0,00332
688,821	0,00339
689,009	0,00328
689,197	0,00323
689,384	0,00322
689,572	0,00323
689,76	0,00328
689,947	0,00325
690,135	0,00316
690,323	0,00313
690,51	0,00308
690,698	0,00295
690,885	0,00299
691,073	0,003
691,26	0,00297
691,448	0,00294
691,635	0,0029
691,823	0,00283
692,01	0,00276
692,197	0,0027
692,385	0,00267
692,572	0,00268
692,76	0,00271
692,947	0,00259
693,134	0,00267
693,322	0,00269
693,509	0,00261
693,696	0,00255
693,884	0,00255
694,071	0,00269
694,258	0,00278
694,445	0,00278
694,633	0,00282
694,82	0,00269
695,007	0,00277
695,194	0,00274
695,381	0,00265
695,568	0,00262
695,756	0,00265
695,943	0,00268
696,13	0,0025
696,317	0,00249
696,504	0,00246
696,691	0,00237
696,878	0,00244
697,065	0,00232
697,252	0,00231
697,439	0,00235
697,626	0,0024
697,813	0,0024
698	0,00227
698,187	0,00225
698,374	0,00222
698,561	0,00221
698,747	0,00222
698,934	0,00219
699,121	0,00226
699,308	0,00215
699,495	0,00211
699,682	0,00211
699,868	0,00198
700,055	0,00204
700,242	0,00202
700,429	0,00198
700,615	0,00186
700,802	0,00192
700,989	0,00188
701,175	0,00178
701,362	0,00181
701,549	0,00187
701,735	0,00187
701,922	0,00197
702,108	0,00205
702,295	0,00213
702,482	0,00207
702,668	0,00222
702,855	0,00215
703,041	0,0022
703,228	0,0022
703,414	0,00219
703,601	0,00218
703,787	0,00225
703,973	0,00215
704,16	0,00197
704,346	0,00192
704,533	0,00195
704,719	0,00187
704,905	0,00186
705,092	0,00183
705,278	0,00187
705,464	0,00193
705,65	0,00194
705,837	0,00176
706,023	0,00179
706,209	0,00189
706,395	0,00201
706,582	0,00207
706,768	0,00205
706,954	0,0021
707,14	0,00212
707,326	0,00207
707,512	0,00202
707,698	0,00203
707,885	0,00204
708,071	0,00201
708,257	0,00197
708,443	0,00193
708,629	0,00196
708,815	0,00195
709,001	0,00184
709,187	0,0017
709,373	0,00182
709,559	0,00173
709,745	0,00159
709,93	0,00153
710,116	0,00154
710,302	0,00166
710,488	0,00164
710,674	0,00159
710,86	0,00158
711,046	0,00167
711,231	0,00178
711,417	0,00171
711,603	0,00169
711,789	0,00173
711,974	0,00181
712,16	0,00177
712,346	0,00162
712,532	0,00153
712,717	0,00144
712,903	0,00139
713,089	0,00133
713,274	0,00128
713,46	0,00123
713,645	0,00126
713,831	0,00134
714,016	0,00127
714,202	0,00139
714,388	0,00162
714,573	0,00158
714,759	0,00167
714,944	0,0017
715,129	0,00163
715,315	0,00167
715,5	0,00158
715,686	0,00159
715,871	0,0016
716,057	0,00156
716,242	0,00166
716,427	0,00143
716,613	0,00147
716,798	0,00144
716,983	0,00142
717,168	0,0016
717,354	0,00162
717,539	0,00171
717,724	0,00173
717,909	0,00167
718,095	0,00181
718,28	0,00164
718,465	0,00165
718,65	0,00162
718,835	0,00146
719,02	0,00149
719,206	0,00136
719,391	0,00133
719,576	0,00125
719,761	0,00117
719,946	0,0011
720,131	0,00099
720,316	0,00092
720,501	0,00093
720,686	0,00104
720,871	0,00126
721,056	0,00123
721,241	0,00118
721,426	0,00114
721,61	0,00118
721,795	0,00116
721,98	0,0012
722,165	0,00129
722,35	0,00144
722,535	0,00143
722,719	0,00128
722,904	0,00114
723,089	0,00112
723,274	0,00118
723,458	0,00113
723,643	0,00115
723,828	0,00119
724,013	0,00119
724,197	0,00116
724,382	0,00109
724,567	0,00112
724,751	0,00122
724,936	0,00123
725,12	0,00129
725,305	0,00132
725,489	0,00139
725,674	0,00136
725,859	0,00142
726,043	0,0014
726,228	0,00144
726,412	0,00136
726,596	0,00135
726,781	0,00129
726,965	0,00126
727,15	0,00132
727,334	0,00121
727,518	0,00122
727,703	0,0012
727,887	0,00118
728,072	0,00124
728,256	0,00116
728,44	0,00127
728,624	0,00128
728,809	0,00121
728,993	0,0013
729,177	0,00121
729,361	0,00131
729,546	0,00133
729,73	0,00132
729,914	0,00119
730,098	0,00112
730,282	0,00111
730,466	0,00099
730,65	0,00101
730,834	0,00101
731,019	0,00086
731,203	0,00085
731,387	0,00081
731,571	0,0007
731,755	0,00073
731,939	0,00079
732,123	0,00073
732,306	0,00082
732,49	0,00083
732,674	0,00078
732,858	0,00086
733,042	0,0009
733,226	0,00092
733,41	0,0009
733,594	0,00094
733,778	0,00091
733,961	0,00091
734,145	0,00105
734,329	0,00109
734,513	0,00116
734,696	0,00116
734,88	0,00111
735,064	0,00116
735,247	0,00112
735,431	0,00115
735,615	0,0011
735,798	0,00123
735,982	0,00126
736,166	0,00124
736,349	0,00111
736,533	0,00103
736,716	0,00104
736,9	0,00109
737,083	0,00112
737,267	0,00106
737,45	0,00098
737,634	0,00112
737,817	0,00109
738,001	0,00099
738,184	0,00092
738,368	0,00097
738,551	0,00091
738,734	0,00085
738,918	0,00082
739,101	0,00085
739,284	0,00082
739,468	0,00084
739,651	0,00084
739,834	0,00077
740,018	0,00075
740,201	0,00079
740,384	0,00079
740,567	0,00091
740,75	0,00099
740,934	0,00095
741,117	0,00086
741,3	0,00099
741,483	0,00104
741,666	0,00091
741,849	0,00101
742,032	0,00104
742,215	0,00102
742,399	0,00104
742,582	0,00099
742,765	0,00101
742,948	0,001
743,131	0,00108
743,314	0,00099
743,496	0,00091
743,679	0,00099
743,862	0,00091
744,045	0,001
744,228	0,00095
744,411	0,00089
744,594	0,00082
744,777	0,00083
744,959	0,00094
745,142	0,00096
745,325	0,00108
745,508	0,00106
745,691	0,00118
745,873	0,00111
746,056	0,001
746,239	0,00105
746,421	0,00111
746,604	0,00117
746,787	0,00106
746,969	0,00102
747,152	0,00089
747,335	0,00075
747,517	0,00075
747,7	0,00071
747,882	0,00085
748,065	0,00078
748,247	0,00078
748,43	0,00066
748,612	0,0006
748,795	0,00063
748,977	0,00049
749,16	0,00053
749,342	0,0006
749,524	0,00057
749,707	0,00044
749,889	0,0004
750,072	0,00055
750,254	0,00055
750,436	0,00061
750,619	0,00066
750,801	0,00069
750,983	0,00077
751,165	0,00076
751,348	0,00072
751,53	0,00076
751,712	0,00081
751,894	0,00071
752,076	0,00082
752,259	0,00081
752,441	0,00078
752,623	0,00082
752,805	0,00067
752,987	0,00061
753,169	0,00063
753,351	0,00058
753,533	0,00057
753,715	0,0006
753,897	0,00056
754,079	0,00045
754,261	0,00042
754,443	0,00045
754,625	0,00054
754,807	0,00068
754,989	0,00081
755,171	0,00085
755,353	0,00091
755,534	0,00089
755,716	0,00089
755,898	0,00093
756,08	0,00088
756,262	0,00082
756,443	0,0007
756,625	0,00061
756,807	0,00055
756,989	0,00047
757,17	0,00046
757,352	0,00048
757,534	0,00061
757,715	0,00053
757,897	0,00056
758,079	0,00062
758,26	0,00071
758,442	0,00091
758,623	0,00083
758,805	0,00089
758,987	0,00089
759,168	0,00077
759,35	0,00074
759,531	0,00064
759,713	0,00066
759,894	0,00059
760,075	0,00056
760,257	0,00047
760,438	0,00039
760,62	0,00041
760,801	0,00036
760,982	0,00034
761,164	0,00036
761,345	0,00039
761,526	0,00042
761,708	0,00046
761,889	0,00058
762,07	0,00048
762,251	0,00063
762,433	0,0006
762,614	0,00061
762,795	0,00064
762,976	0,0007
763,157	0,00078
763,338	0,00066
763,52	0,00062
763,701	0,00057
763,882	0,00046
764,063	0,00054
764,244	0,00056
764,425	0,0005
764,606	0,00052
764,787	0,00051
764,968	0,00042
765,149	0,00033
765,33	0,00035
765,511	0,00039
765,692	0,00037
765,873	0,00045
766,053	0,00036
766,234	0,00032
766,415	0,00041
766,596	0,00033
766,777	0,00024
766,958	0,00024
767,138	0,00029
767,319	0,00027
767,5	0,00023
767,681	0,00009
767,861	0,00014
768,042	0,00014
768,223	0,00006
768,403	-0,00004
768,584	-0,00004
768,765	0,00007
768,945	0,00002
769,126	0,00014
769,307	0,00019
769,487	0,00018
769,668	0,00027
769,848	0,00007
770,029	0,00008
770,209	-0,00001
770,39	-0,00002
770,57	-0,00002
770,751	-0,00011
770,931	-0,00008
771,111	-0,00024
771,292	-0,00022
771,472	-0,00016
771,653	-0,00015
771,833	-0,00011
772,013	-0,0001
772,194	0,00005
772,374	0,00007
772,554	0,00001
772,734	0,00006
772,915	0,00013
773,095	0,00026
773,275	0,00014
773,455	0,0001
773,635	0,00001
773,816	0,00011
773,996	0,00023
774,176	0,00026
774,356	0,00033
774,536	0,00047
774,716	0,00045
774,896	0,00038
775,076	0,0003
775,256	0,00041
775,436	0,00046
775,616	0,00065
775,796	0,00055
775,976	0,00054
776,156	0,00054
776,336	0,00041
776,516	0,0004
776,696	0,00046
776,876	0,00049
777,056	0,00041
777,235	0,00038
777,415	0,00035
777,595	0,00022
777,775	0,00033
777,955	0,00014
778,134	0,00012
778,314	0,00027
778,494	0,00021
778,674	0,00023
778,853	0,00009
779,033	0,0001
779,213	0,00017
779,392	0,0002
779,572	0,00023
779,751	0,00007
779,931	0,00015
780,111	0,00008
780,29	-0,00015
780,47	-0,00009
780,649	-0,00024
780,829	-0,00008
781,008	0,00003
781,188	0,00002
781,367	-0,00001
781,546	0,00004
781,726	0,00006
781,905	0,00002
782,085	0,00001
782,264	0,00018
782,443	0,00024
782,623	0,00024
782,802	0,0003
782,981	0,0002
783,161	0,00015
783,34	0,00008
783,519	0,00012
783,698	0,00023
783,878	0,00025
784,057	0,0002
784,236	0,00024
784,415	0,00032
784,594	0,00041
784,773	0,00036
784,952	0,00041
785,132	0,00036
785,311	0,00051
785,49	0,00042
785,669	0,00039
785,848	0,00046
786,027	0,00043
786,206	0,0003
786,385	0,00001
786,564	-0,00005
786,743	-0,00004
786,922	0,00004
787,1	0,00009
787,279	0,00005
787,458	0,00006
787,637	0,00017
787,816	0,00016
787,995	0,0002
788,174	0,00026
788,352	0,00039
788,531	0,00039
788,71	0,00041
788,889	0,00035
789,067	0,00025
789,246	0,0002
789,425	0,00026
789,603	0,0001
789,782	0,00007
789,961	0,00009
790,139	0,00021
790,318	0,00015
790,496	0,00026
790,675	0,00031
790,853	0,00033
791,032	0,0004
791,211	0,00042
791,389	0,0003
791,568	0,00045
791,746	0,00047
791,924	0,00064
792,103	0,00052
792,281	0,00062
792,46	0,00061
792,638	0,00056
792,816	0,00064
792,995	0,00062
793,173	0,00063
793,351	0,00069
793,53	0,00063
793,708	0,0007
793,886	0,00066
794,064	0,00077
794,243	0,00082
794,421	0,00071
794,599	0,00072
794,777	0,00062
794,955	0,00058
795,133	0,00068
795,312	0,00062
795,49	0,00056
795,668	0,00043
795,846	0,00033
796,024	0,00037
796,202	0,00032
796,38	0,0003
796,558	0,00016
796,736	0,00014
796,914	0,00024
797,092	0,00008
797,27	0,00005
797,448	0,00004
797,626	0,00003
797,803	0,00005
797,981	-0,00011
798,159	-0,00029
798,337	-0,00022
798,515	-0,0002
798,693	-0,00017
798,87	-0,00023
799,048	-0,00023
799,226	-0,00021
799,404	-0,00027
799,581	-0,00028
799,759	-0,00044
799,937	-0,00048
800,114	-0,00039
800,292	-0,00042
800,469	-0,00025
800,647	-0,00031
800,825	-0,00034
801,002	-0,00039
801,18	-0,00044
801,357	-0,00029
801,535	-0,00027
801,712	-0,00011
801,89	0
802,067	0
802,245	-0,00001
802,422	-0,00016
802,6	-0,00013
802,777	-0,00011
802,954	-0,00003
803,132	0,00012
803,309	0,00012
803,486	0,00015
803,664	0,00014
803,841	0,00023
804,018	0,00025
804,195	0,00028
804,373	0,00034
804,55	0,00045
804,727	0,00038
804,904	0,00032
805,081	0,00028
805,259	0,00016
805,436	0,00004
805,613	0,00006
805,79	-0,00005
805,967	-0,00011
806,144	-0,00007
806,321	-0,00015
806,498	-0,00021
806,675	-0,00014
806,852	-0,00012
807,029	-0,00004
807,206	-0,00002
807,383	0,00013
807,56	0,00012
807,737	0,00012
807,914	0,0001
808,091	0,00011
808,268	0,00025
808,444	0,00015
808,621	0,00025
808,798	0,00003
808,975	0,00001
809,152	-0,0001
809,328	-0,00019
809,505	-0,00019
809,682	-0,00022
809,858	-0,00014
810,035	-0,00015
810,212	-0,00029
810,388	-0,0002
810,565	-0,00016
810,742	0,00008
810,918	-0,00003
811,095	0
811,271	0,00007
811,448	0,00005
811,625	0,00011
811,801	0,00005
811,978	0,00003
812,154	-0,00006
812,33	-0,00009
812,507	-0,00009
812,683	-0,00012
812,86	-0,00002
813,036	0,00006
813,212	0,00008
813,389	-0,00006
813,565	-0,00024
813,741	-0,00008
813,918	-0,00007
814,094	0,00006
814,27	-0,00012
814,447	-0,00018
814,623	-0,00018
814,799	-0,00026
814,975	-0,00024
815,151	-0,00024
815,328	-0,00008
815,504	0,00011
815,68	-0,0001
815,856	-0,00002
816,032	0,00011
816,208	0,00019
816,384	0,00004
816,56	-0,00004
816,736	-0,00016
816,912	-0,00008
817,088	-0,0002
817,264	-0,00032
817,44	-0,00036
817,616	-0,00026
817,792	-0,00044
817,968	-0,00048
818,144	-0,00031
818,32	-0,00016
818,495	-0,00002
818,671	0,00016
818,847	0,00007
819,023	0,0002
819,199	0,00028
819,374	0,00043
819,55	0,00037
819,726	0,00041
819,902	0,0003
820,077	0,00025
820,253	0,00025
820,429	0,00014
820,604	0,00018
820,78	0,00024
820,956	0,00031
821,131	0,00015
821,307	-0,00003
821,482	-0,00005
821,658	0,00006
821,833	-0,00014
822,009	-0,00026
822,184	-0,00032
822,36	-0,00043
822,535	-0,00049
822,711	-0,00061
822,886	-0,00084
823,061	-0,00093
823,237	-0,00084
823,412	-0,0006
823,587	-0,00082
823,763	-0,0008
823,938	-0,00073
824,113	-0,00066
824,289	-0,0006
824,464	-0,00061
824,639	-0,0005
824,814	-0,00033
824,99	-0,00022
825,165	-0,00022
825,34	-0,00049
825,515	-0,00029
825,69	-0,00001
825,865	-0
826,04	0
826,215	0,00024
826,39	0,00044
826,566	0,00043
826,741	0,00046
826,916	0,00067
827,091	0,00057
827,265	0,00071
827,44	0,00063
827,615	0,00061
827,79	0,00045
827,965	0,00042
828,14	0,00019
828,315	0,00011
828,49	0,00016
828,665	0,00017
828,839	-0,00004
829,014	0,00004
829,189	0,00004
829,364	0,00013
829,538	0,00017
829,713	0,00022
829,888	0,00028
830,063	0,00024
830,237	-0,00005
830,412	-0,00018
830,587	-0,00019
830,761	0,00001
830,936	-0,00002
831,11	0
831,285	-0,00011
831,459	-0,00012
831,634	-0,00018
831,809	-0,00006
831,983	-0,00003
832,157	0,0001
832,332	0,00015
832,506	0,00013
832,681	-0,00002
832,855	-0,00019
833,03	-0,00034
833,204	-0,00041
833,378	-0,00046
833,553	-0,00041
833,727	-0,00048
833,901	-0,00046
834,076	-0,00038
834,25	-0,00034
834,424	-0,00038
834,598	-0,00021
834,773	-0,00003
834,947	0,00023
835,121	0,00042
835,295	0,00033
835,469	0,00037
835,643	0,0001
835,817	0,00018
835,991	-0,00003
836,166	-0,00009
836,34	-0,00001
836,514	-0,00007
836,688	0,00003
836,862	-0,0001
837,036	-0,00028
837,21	-0,0002
837,384	-0,00007
837,557	0,00006
837,731	0,0001
837,905	0,00032
838,079	0,00032
838,253	0,00025
838,427	0,00021
838,601	0,00009
838,774	-0,00004
838,948	-0,00003
839,122	0,00007
839,296	-0,00003
839,469	0,00018
839,643	0,00005
839,817	-0,00013
839,991	-0,0002
840,164	-0,00023
840,338	-0,00048
840,512	-0,00045
840,685	-0,00032
840,859	-0,00022
841,032	-0,00024
841,206	-0,00032
841,379	-0,00063
841,553	-0,0004
841,726	-0,00018
841,9	0,00005
842,073	0,00009
842,247	0,00023
842,42	0
842,594	0,00002
842,767	-0,00007
842,94	-0,00014
843,114	0,00011
843,287	0,0004
843,46	0,00021
843,634	0,00002
843,807	0,00003
843,98	0,00015
844,154	0,0002
844,327	0,00041
844,5	0,00041
844,673	0,00046
844,846	0,0004
845,02	0,00023
845,193	-0,00006
845,366	-0,00007
845,539	0,00003
845,712	0,00015
845,885	-0,00019
846,058	-0,00018
846,231	-0,00029
846,404	-0,00042
846,577	-0,00046
846,75	-0,00027
846,923	-0,00018
847,096	-0,0001
847,269	0,00004
847,442	0,00004
847,615	-0,00012
847,788	-0
847,961	0,00019
848,133	0,0002
848,306	0,00035
848,479	0,00038
848,652	0,00027
848,825	0,00015
848,997	0,00031
849,17	0,00017
849,343	0,00009
849,515	0,00009
849,688	0,0001
849,861	-0,00001
850,033	0,00019
850,206	0,00018
850,379	0,00031
850,551	0,00038
850,724	0,0005
850,896	0,00038
851,069	0,00033
851,241	0,00036
851,414	0,00037
851,586	0,00035
851,759	0,00033
851,931	-0,00002
852,104	-0,0002
852,276	-0,00027
852,449	-0,00044
852,621	-0,00058
852,793	-0,00061
852,966	-0,00055
853,138	-0,00038
853,31	-0,00039
853,483	-0,00037
853,655	-0,00038
853,827	-0,00034
853,999	-0,00009
854,172	-0,00022
854,344	-0,00008
854,516	-0,00008
854,688	0,00005
854,86	-0
855,032	-0,00034
855,204	-0,0003
855,377	-0,00034
855,549	-0,00037
855,721	-0,00022
855,893	-0,00042
856,065	-0,00038
856,237	-0,00051
856,409	-0,00043
856,581	-0,00063
856,753	-0,00044
856,924	-0,00023
857,096	-0,00015
857,268	0,00011
857,44	0,00007
857,612	0,00015
857,784	0,00014
857,956	0,00029
858,127	0,00039
858,299	0,00017
858,471	0,00038
858,643	0,00016
858,814	0,00017
858,986	-0,00004
859,158	-0,00013
859,33	-0,00001
859,501	-0,00027
859,673	-0,00009
859,844	-0,00007
860,016	-0,00016
860,188	0,00004
860,359	0,00015
860,531	0,00031
860,702	0,00004
860,874	-0,00005
861,045	-0,00018
861,217	-0,0005
861,388	-0,00027
861,56	-0,00041
861,731	-0,00057
861,902	-0,00049
862,074	-0,00044
862,245	-0,00048
862,417	-0,00062
862,588	-0,00049
862,759	-0,00057
862,931	-0,0007
863,102	-0,00032
863,273	-0,00047
863,444	-0,00055
863,616	-0,00036
863,787	-0,00017
863,958	-0,00039
864,129	-0,00048
864,3	-0,00034
864,471	-0,00022
864,642	-0,00001
864,814	-0,00008
864,985	-0,00032
865,156	-0,0003
865,327	-0,0003
865,498	-0,00035
865,669	-0,00061
865,84	-0,00054
866,011	-0,00053
866,182	-0,00062
866,353	-0,00066
866,523	-0,0009
866,694	-0,00068
866,865	-0,00049
867,036	-0,00036
867,207	-0,00031
867,378	-0,0007
867,549	-0,00088
867,719	-0,0009
867,89	-0,00105
868,061	-0,001
868,232	-0,00114
868,402	-0,00115
868,573	-0,00144
868,744	-0,00142
868,914	-0,00154
869,085	-0,00153
869,256	-0,00123
869,426	-0,00105
869,597	-0,0009
869,767	-0,00075
869,938	-0,00067
870,108	-0,00059
870,279	-0,00035
870,449	-0,00017
870,62	-0,00036
870,79	-0,00032
870,961	-0,00025
871,131	-0,0005
871,302	-0,00024
871,472	-0,00039
871,642	-0,00042
871,813	-0,00058
871,983	-0,00049
872,153	-0,00055
872,324	-0,0005
872,494	-0,0007
872,664	-0,00088
872,835	-0,00055
873,005	-0,00036
873,175	-0,00065
873,345	-0,00047
873,515	-0,00051
873,685	-0,0006
873,856	-0,00031
874,026	-0,00035
874,196	-0,00025
874,366	-0,00018
874,536	0,00012
874,706	-0,0004
874,876	-0,00052
875,046	-0,00084
875,216	-0,00122
875,386	-0,00105
875,556	-0,00074
875,726	-0,00101
875,896	-0,00099
876,066	-0,0011
876,236	-0,00101
876,405	-0,00106
876,575	-0,0007
876,745	-0,00071
876,915	-0,00011
877,085	0,00035
877,254	0,00017
877,424	0,00028
877,594	0,00014
877,764	0,00012
877,933	0,0002
878,103	0,00021
878,273	0,00071
878,442	0,00043
878,612	0,0005
878,781	0,00041
878,951	0,00027
879,121	0,00035
879,29	0,00005
879,46	0,00046
879,629	0,00081
879,799	0,00083
879,968	0,00104
880,138	0,00059
880,307	0,00077
880,476	0,00085
880,646	0,00044
880,815	0,00028
880,985	0,00004
881,154	-0,00001
881,323	-0,00025
881,493	-0,00028
881,662	-0,00042
881,831	-0,00046
882	-0,00045
882,17	-0,00038
882,339	-0,00057
882,508	-0,00041
882,677	-0,00021
882,846	0,00015
883,016	0,00018
883,185	0,00031
883,354	0,00015
883,523	0,00017
883,692	0,00002
883,861	0,00031
884,03	-0,00015
884,199	0,00018
884,368	0,00059
884,537	0,00039
884,706	0,00027
884,875	0,00054
885,044	0,0004
885,213	0,00054
885,382	0,00067
885,55	0,00069
885,719	0,00038
885,888	0,00059
886,057	0,00043
886,226	0,00016
886,395	0,00058
886,563	0,00036
886,732	0,00019
886,901	0,00028
887,069	0,00033
887,238	0,00057
887,407	0,00066
887,575	0,00094
887,744	0,00102
887,913	0,0008
888,081	0,00085
888,25	0,0007
888,418	0,00074
888,587	0,00052
888,755	0,00045
888,924	0,00028
889,092	0,00002
889,261	-0,00009
889,429	-0,00022
889,598	-0,00013
889,766	0,00022
889,935	0,0002
890,103	0,00005
890,271	0,00007
890,44	0,00009
890,608	-0,00027
890,776	-0,00044
890,944	-0,00055
891,113	-0,00049
891,281	-0,00097
891,449	-0,00129
891,617	-0,00158
891,786	-0,00177
891,954	-0,00153
892,122	-0,00118
892,29	-0,00103
892,458	-0,00099
892,626	-0,0008
892,794	-0,00075
892,962	-0,00074
893,13	-0,00044
893,298	-0,00003
893,466	0,00035
