Data from Chemiepractica_Absorbance__17__11-36-13-076.txt Node

Date: Mon Dec 09 11:36:13 CET 2024
User: r0948668
Spectrometer: USB4F07138
Trigger mode: 4
Integration Time (sec): 6,000000E-3
Scans to average: 20
Electric dark correction enabled: true
Nonlinearity correction enabled: false
Boxcar width: 5
XAxis mode: Wavelengths
Number of Pixels in Spectrum: 3648
>>>>>Begin Spectral Data<<<<<
176,779	0,13054
176,999	-0,3328
177,218	-0,35115
177,438	-0
177,658	1,58676
177,878	0,5575
178,097	0,40878
178,317	1,18199
178,537	0,30626
178,757	0,3196
178,976	0,3977
179,196	-0,24822
179,416	0,37061
179,635	-0,13306
179,855	-0,04169
180,075	-0,0175
180,294	-0,03768
180,514	-0,06852
180,734	-0,01444
180,953	-0,00255
181,173	-0,00733
181,392	-0,00173
181,612	0,00886
181,832	0,01122
182,051	0,00802
182,271	-0,00521
182,49	-0,00997
182,71	0,00281
182,929	0,02539
183,149	0,00935
183,368	0,02486
183,588	0,01761
183,807	0,02122
184,027	0,03749
184,246	0,04197
184,466	0,04318
184,685	0,0606
184,905	0,04978
185,124	0,057
185,344	0,05703
185,563	0,06274
185,782	0,06082
186,002	0,07038
186,221	0,05069
186,44	0,03618
186,66	0,03287
186,879	0,05083
187,099	0,03583
187,318	0,05031
187,537	0,04369
187,756	0,05139
187,976	0,03909
188,195	0,03289
188,414	0,03429
188,634	0,05234
188,853	0,05333
189,072	0,0569
189,291	0,03445
189,511	0,05649
189,73	0,06279
189,949	0,0584
190,168	0,04674
190,387	0,08123
190,607	0,08234
190,826	0,08041
191,045	0,07287
191,264	0,06612
191,483	0,05749
191,702	0,0635
191,921	0,05047
192,141	0,05669
192,36	0,04519
192,579	0,03587
192,798	0,02026
193,017	0,01471
193,236	0,03079
193,455	0,04385
193,674	0,05731
193,893	0,05567
194,112	0,0573
194,331	0,06347
194,55	0,06088
194,769	0,06282
194,988	0,06379
195,207	0,06521
195,426	0,06446
195,645	0,05034
195,864	0,04995
196,083	0,03733
196,302	0,03807
196,521	0,05694
196,739	0,03816
196,958	0,02948
197,177	0,04119
197,396	0,05801
197,615	0,04682
197,834	0,04751
198,053	0,04972
198,271	0,03214
198,49	0,04699
198,709	0,04977
198,928	0,03821
199,147	0,03675
199,365	0,05573
199,584	0,05588
199,803	0,03469
200,022	0,036
200,24	0,03426
200,459	0,02947
200,678	0,03706
200,897	0,03668
201,115	0,03749
201,334	0,04056
201,553	0,04719
201,771	0,03017
201,99	0,01885
202,209	0,04416
202,427	0,04678
202,646	0,05249
202,864	0,04439
203,083	0,03727
203,302	0,031
203,52	0,04047
203,739	0,03406
203,957	0,04011
204,176	0,04476
204,394	0,05241
204,613	0,05086
204,831	0,05732
205,05	0,06723
205,268	0,08711
205,487	0,08969
205,705	0,08722
205,924	0,08239
206,142	0,08474
206,361	0,08909
206,579	0,09169
206,798	0,08197
207,016	0,05897
207,234	0,05415
207,453	0,05418
207,671	0,04874
207,89	0,05757
208,108	0,05967
208,326	0,05179
208,545	0,05157
208,763	0,04358
208,981	0,02763
209,2	0,02678
209,418	0,03955
209,636	0,03256
209,855	0,01731
210,073	0,00842
210,291	-0,00145
210,509	-0,00749
210,728	-0,00441
210,946	0,00425
211,164	0,00665
211,382	0,02659
211,6	0,05071
211,819	0,04717
212,037	0,0504
212,255	0,04484
212,473	0,05277
212,691	0,06562
212,909	0,0622
213,128	0,04933
213,346	0,04347
213,564	0,04333
213,782	0,04048
214	0,03567
214,218	0,04203
214,436	0,04609
214,654	0,04749
214,872	0,03594
215,09	0,02446
215,308	0,03558
215,526	0,04494
215,744	0,03759
215,962	0,03991
216,18	0,03261
216,398	0,02092
216,616	0,01635
216,834	0,00993
217,052	0,0137
217,27	0,02102
217,488	0,01003
217,706	0,01135
217,924	0,0131
218,142	0,01779
218,36	0,03224
218,578	0,04254
218,795	0,03519
219,013	0,02746
219,231	0,02047
219,449	0,01394
219,667	0,01046
219,885	0,02863
220,102	0,03168
220,32	0,02635
220,538	0,03274
220,756	0,01829
220,973	0,0238
221,191	0,02917
221,409	0,03167
221,627	0,04194
221,844	0,05904
222,062	0,07245
222,28	0,06561
222,497	0,05369
222,715	0,06566
222,933	0,04861
223,15	0,03907
223,368	0,02841
223,586	0,04703
223,803	0,0475
224,021	0,05057
224,239	0,04823
224,456	0,02966
224,674	0,02637
224,891	0,04531
225,109	0,03955
225,326	0,04042
225,544	0,06125
225,762	0,05767
225,979	0,05464
226,197	0,06492
226,414	0,06254
226,632	0,05504
226,849	0,0671
227,066	0,07348
227,284	0,05634
227,501	0,06444
227,719	0,07548
227,936	0,07021
228,154	0,07573
228,371	0,05191
228,588	0,05583
228,806	0,05652
229,023	0,05733
229,241	0,06111
229,458	0,06785
229,675	0,07602
229,893	0,05921
230,11	0,05694
230,327	0,05263
230,545	0,04965
230,762	0,06424
230,979	0,05351
231,196	0,05151
231,414	0,04445
231,631	0,03417
231,848	0,02388
232,065	0,02031
232,283	0,03206
232,5	0,03346
232,717	0,02674
232,934	0,01752
233,151	0,01515
233,368	0,01754
233,586	0,01589
233,803	0,02687
234,02	0,0289
234,237	0,02127
234,454	0,02058
234,671	0,03346
234,888	0,02888
235,105	0,03181
235,322	0,04125
235,54	0,03422
235,757	0,03576
235,974	0,04459
236,191	0,04534
236,408	0,04785
236,625	0,05487
236,842	0,04054
237,059	0,02957
237,276	0,02255
237,493	0,03682
237,71	0,03774
237,926	0,04158
238,143	0,04417
238,36	0,0363
238,577	0,02401
238,794	0,01529
239,011	0,02204
239,228	0,03302
239,445	0,03397
239,662	0,05046
239,878	0,04099
240,095	0,03595
240,312	0,04523
240,529	0,04866
240,746	0,05868
240,963	0,06435
241,179	0,08109
241,396	0,08436
241,613	0,07052
241,83	0,0683
242,046	0,05415
242,263	0,05628
242,48	0,06226
242,697	0,05553
242,913	0,04979
243,13	0,03091
243,347	0,03033
243,563	0,02108
243,78	0,00938
243,997	0,02885
244,213	0,02385
244,43	0,04256
244,646	0,04354
244,863	0,05687
245,08	0,06266
245,296	0,06175
245,513	0,07213
245,729	0,07437
245,946	0,0808
246,162	0,08058
246,379	0,07505
246,595	0,07136
246,812	0,05572
247,028	0,05457
247,245	0,03822
247,461	0,01956
247,678	0,02085
247,894	0,02035
248,111	0,01936
248,327	0,02078
248,544	0,02336
248,76	0,02657
248,976	0,03622
249,193	0,03723
249,409	0,04187
249,626	0,03865
249,842	0,05569
250,058	0,0612
250,275	0,05507
250,491	0,05148
250,707	0,04865
250,924	0,05949
251,14	0,04622
251,356	0,04438
251,572	0,04852
251,789	0,0372
252,005	0,039
252,221	0,04069
252,437	0,02839
252,654	0,03605
252,87	0,04571
253,086	0,05451
253,302	0,05035
253,518	0,05995
253,735	0,05596
253,951	0,05489
254,167	0,0572
254,383	0,04697
254,599	0,0285
254,815	0,04294
255,031	0,02945
255,247	0,01739
255,463	0,0013
255,68	0,01158
255,896	0,01041
256,112	0,01029
256,328	0,00073
256,544	-0,00061
256,76	0,0104
256,976	0,02146
257,192	0,00821
257,408	0,0209
257,624	0,02603
257,84	0,033
258,056	0,01886
258,272	0,02134
258,487	0,0088
258,703	0,01566
258,919	0,01267
259,135	0,00544
259,351	0,00493
259,567	0,01686
259,783	0,01997
259,999	0,02632
260,215	0,03305
260,43	0,02533
260,646	0,02532
260,862	0,05212
261,078	0,05589
261,294	0,04694
261,509	0,05515
261,725	0,06687
261,941	0,06223
262,157	0,0512
262,372	0,05274
262,588	0,03686
262,804	0,04872
263,019	0,03672
263,235	0,03049
263,451	0,02418
263,667	0,03471
263,882	0,03783
264,098	0,04249
264,313	0,04147
264,529	0,03272
264,745	0,03708
264,96	0,04111
265,176	0,04843
265,391	0,05339
265,607	0,05524
265,823	0,05089
266,038	0,04934
266,254	0,04774
266,469	0,03655
266,685	0,03614
266,9	0,04392
267,116	0,03399
267,331	0,04689
267,547	0,03964
267,762	0,04375
267,978	0,03815
268,193	0,04713
268,408	0,05631
268,624	0,05917
268,839	0,05475
269,055	0,04484
269,27	0,04738
269,485	0,0462
269,701	0,04338
269,916	0,04155
270,132	0,05487
270,347	0,06034
270,562	0,05974
270,777	0,05228
270,993	0,05483
271,208	0,05874
271,423	0,08092
271,639	0,08023
271,854	0,07428
272,069	0,0585
272,284	0,05968
272,5	0,0419
272,715	0,03468
272,93	0,03527
273,145	0,03471
273,36	0,03498
273,576	0,03213
273,791	0,0182
274,006	0,02033
274,221	0,02597
274,436	0,0347
274,651	0,03895
274,866	0,04281
275,081	0,05719
275,296	0,04565
275,512	0,04313
275,727	0,04486
275,942	0,04402
276,157	0,05123
276,372	0,05424
276,587	0,06367
276,802	0,0714
277,017	0,0652
277,232	0,07126
277,447	0,06083
277,662	0,06619
277,877	0,06785
278,092	0,05687
278,306	0,0613
278,521	0,05288
278,736	0,05041
278,951	0,03214
279,166	0,01286
279,381	0,01507
279,596	0,005
279,811	0,00897
280,025	0,00184
280,24	-0,00186
280,455	-0,00407
280,67	-0,01137
280,885	-0,01371
281,099	-0,02322
281,314	-0,02279
281,529	-0,00801
281,744	-0,00388
281,959	0,00115
282,173	0,0061
282,388	0,02063
282,603	0,02802
282,817	0,03619
283,032	0,04575
283,247	0,04054
283,461	0,04506
283,676	0,04833
283,891	0,04024
284,105	0,04222
284,32	0,0461
284,535	0,03522
284,749	0,03185
284,964	0,03305
285,178	0,0366
285,393	0,03696
285,607	0,04362
285,822	0,0569
286,036	0,07197
286,251	0,07196
286,465	0,0744
286,68	0,07007
286,894	0,06947
287,109	0,07805
287,323	0,07374
287,538	0,07435
287,752	0,06585
287,967	0,06159
288,181	0,05007
288,396	0,04239
288,61	0,05409
288,824	0,05565
289,039	0,06234
289,253	0,06981
289,467	0,06409
289,682	0,05437
289,896	0,05311
290,11	0,05523
290,325	0,05864
290,539	0,05476
290,753	0,0507
290,968	0,03639
291,182	0,02401
291,396	0,01424
291,61	0,01311
291,825	0,00454
292,039	0,01667
292,253	0,01678
292,467	0,02196
292,681	0,02025
292,896	0,0251
293,11	0,0219
293,324	0,03093
293,538	0,03073
293,752	0,03713
293,966	0,02704
294,18	0,02572
294,394	0,02076
294,608	0,01916
294,823	0,01304
295,037	0,01704
295,251	0,01928
295,465	0,0219
295,679	0,01284
295,893	0,0221
296,107	0,01892
296,321	0,03027
296,535	0,03382
296,749	0,03621
296,963	0,02214
297,177	0,03204
297,391	0,03806
297,604	0,03335
297,818	0,03188
298,032	0,03969
298,246	0,02321
298,46	0,02943
298,674	0,03176
298,888	0,04251
299,102	0,04308
299,315	0,06116
299,529	0,05868
299,743	0,05789
299,957	0,06227
300,171	0,06439
300,385	0,07337
300,598	0,07308
300,812	0,06584
301,026	0,05654
301,24	0,0567
301,453	0,04822
301,667	0,03967
301,881	0,03343
302,094	0,02535
302,308	0,02093
302,522	0,03205
302,735	0,02674
302,949	0,03395
303,163	0,02617
303,376	0,02599
303,59	0,02868
303,803	0,02996
304,017	0,02436
304,231	0,02724
304,444	0,02538
304,658	0,02968
304,871	0,02683
305,085	0,02083
305,298	0,01711
305,512	0,02942
305,725	0,0306
305,939	0,02434
306,152	0,02774
306,366	0,02386
306,579	0,02666
306,793	0,04204
307,006	0,03652
307,22	0,03284
307,433	0,0325
307,646	0,02933
307,86	0,02747
308,073	0,03309
308,286	0,02788
308,5	0,03233
308,713	0,0357
308,926	0,04008
309,14	0,03392
309,353	0,02986
309,566	0,02412
309,78	0,0175
309,993	0,02007
310,206	0,02483
310,419	0,02248
310,633	0,0189
310,846	0,01971
311,059	0,02181
311,272	0,01552
311,486	0,0141
311,699	0,01899
311,912	0,01654
312,125	0,02699
312,338	0,03223
312,551	0,0184
312,764	0,02156
312,978	0,03502
313,191	0,039
313,404	0,03083
313,617	0,03441
313,83	0,03621
314,043	0,04358
314,256	0,04621
314,469	0,04327
314,682	0,04212
314,895	0,0546
315,108	0,0499
315,321	0,04083
315,534	0,03579
315,747	0,05192
315,96	0,05434
316,173	0,04948
316,386	0,0448
316,599	0,05168
316,812	0,05341
317,025	0,05892
317,237	0,05133
317,45	0,04815
317,663	0,05129
317,876	0,0523
318,089	0,04886
318,302	0,03531
318,515	0,03531
318,727	0,03458
318,94	0,02616
319,153	0,02049
319,366	0,01387
319,578	0,01346
319,791	0,01931
320,004	0,01245
320,217	0,01488
320,429	0,02434
320,642	0,03224
320,855	0,0248
321,067	0,01859
321,28	0,02158
321,493	0,02431
321,705	0,02133
321,918	0,01546
322,131	0,01928
322,343	0,02281
322,556	0,02532
322,768	0,0167
322,981	0,01492
323,194	0,02418
323,406	0,02238
323,619	0,02382
323,831	0,0306
324,044	0,03691
324,256	0,04759
324,469	0,03676
324,681	0,04296
324,894	0,04181
325,106	0,03903
325,319	0,03421
325,531	0,03635
325,743	0,04281
325,956	0,03884
326,168	0,03357
326,381	0,03479
326,593	0,02779
326,805	0,03215
327,018	0,03475
327,23	0,01772
327,442	0,01691
327,655	0,01756
327,867	0,01886
328,079	0,01568
328,292	0,02566
328,504	0,02747
328,716	0,0234
328,928	0,04085
329,141	0,04537
329,353	0,0335
329,565	0,05
329,777	0,05506
329,99	0,0618
330,202	0,0592
330,414	0,05691
330,626	0,04738
330,838	0,04848
331,05	0,04358
331,263	0,0302
331,475	0,0314
331,687	0,03143
331,899	0,03504
332,111	0,03411
332,323	0,03072
332,535	0,03307
332,747	0,04881
332,959	0,04489
333,171	0,04921
333,383	0,05534
333,595	0,05979
333,807	0,05867
334,019	0,06681
334,231	0,05617
334,443	0,0549
334,655	0,04633
334,867	0,0461
335,079	0,04018
335,291	0,03939
335,503	0,03409
335,714	0,02975
335,926	0,02789
336,138	0,0243
336,35	0,01991
336,562	0,01948
336,774	0,02216
336,986	0,02937
337,197	0,02665
337,409	0,02227
337,621	0,02334
337,833	0,02337
338,044	0,02995
338,256	0,02916
338,468	0,02634
338,68	0,02226
338,891	0,02487
339,103	0,01669
339,315	0,01823
339,526	0,01406
339,738	0,00423
339,95	0,0039
340,161	0,00801
340,373	-0,00206
340,585	-0,01025
340,796	-0,0037
341,008	0,00186
341,219	-0,00069
341,431	-0,00237
341,642	0,0023
341,854	0,01255
342,065	0,03079
342,277	0,0324
342,489	0,03181
342,7	0,03892
342,912	0,05095
343,123	0,05401
343,334	0,04958
343,546	0,04313
343,757	0,05295
343,969	0,0414
344,18	0,03692
344,392	0,02744
344,603	0,03801
344,814	0,03934
345,026	0,03943
345,237	0,03445
345,448	0,02979
345,66	0,03031
345,871	0,03549
346,082	0,03539
346,294	0,04228
346,505	0,03315
346,716	0,04431
346,927	0,03844
347,139	0,035
347,35	0,03468
347,561	0,03719
347,772	0,03341
347,984	0,04169
348,195	0,05123
348,406	0,04631
348,617	0,0464
348,828	0,05783
349,039	0,03849
349,251	0,04226
349,462	0,04262
349,673	0,03776
349,884	0,03624
350,095	0,03877
350,306	0,03061
350,517	0,02981
350,728	0,03036
350,939	0,03297
351,15	0,03655
351,361	0,04955
351,572	0,05199
351,783	0,05143
351,994	0,0463
352,205	0,0468
352,416	0,04368
352,627	0,04926
352,838	0,04223
353,049	0,04548
353,26	0,04261
353,471	0,03381
353,682	0,02906
353,893	0,02346
354,103	0,02021
354,314	0,0207
354,525	0,02072
354,736	0,02778
354,947	0,03069
355,157	0,03131
355,368	0,03031
355,579	0,02685
355,79	0,02806
356,001	0,02726
356,211	0,03618
356,422	0,02996
356,633	0,03751
356,843	0,03755
357,054	0,03105
357,265	0,02912
357,476	0,0324
357,686	0,03173
357,897	0,03934
358,107	0,03539
358,318	0,03405
358,529	0,02998
358,739	0,0414
358,95	0,04069
359,16	0,0403
359,371	0,04193
359,582	0,03685
359,792	0,03499
360,003	0,03073
360,213	0,02146
360,424	0,02708
360,634	0,03323
360,845	0,02548
361,055	0,02493
361,266	0,02514
361,476	0,03113
361,686	0,03063
361,897	0,03244
362,107	0,0339
362,318	0,0389
362,528	0,04433
362,738	0,03875
362,949	0,03327
363,159	0,03841
363,369	0,03884
363,58	0,03023
363,79	0,02144
364	0,01657
364,211	0,01266
364,421	0,00993
364,631	0,01016
364,842	0,00492
365,052	0,00532
365,262	0,00218
365,472	-0,00443
365,682	-0,00354
365,893	0,00373
366,103	0,00739
366,313	0,01414
366,523	0,02131
366,733	0,01701
366,943	0,01899
367,154	0,0253
367,364	0,03506
367,574	0,04102
367,784	0,04344
367,994	0,04082
368,204	0,04071
368,414	0,03872
368,624	0,03505
368,834	0,03239
369,044	0,03864
369,254	0,03575
369,464	0,02851
369,674	0,02421
369,884	0,02073
370,094	0,02181
370,304	0,01869
370,514	0,02152
370,724	0,02055
370,934	0,01731
371,144	0,01383
371,353	0,01369
371,563	0,01588
371,773	0,01963
371,983	0,0196
372,193	0,02308
372,403	0,0251
372,612	0,02539
372,822	0,02513
373,032	0,02539
373,242	0,03019
373,452	0,03231
373,661	0,03339
373,871	0,03078
374,081	0,03148
374,29	0,02983
374,5	0,02587
374,71	0,02358
374,92	0,02395
375,129	0,02378
375,339	0,02301
375,549	0,02092
375,758	0,02176
375,968	0,01927
376,177	0,01773
376,387	0,01638
376,597	0,01481
376,806	0,01862
377,016	0,01744
377,225	0,01961
377,435	0,01487
377,644	0,01826
377,854	0,01949
378,063	0,02009
378,273	0,02097
378,482	0,023
378,692	0,02614
378,901	0,02791
379,111	0,02938
379,32	0,03419
379,529	0,03286
379,739	0,03477
379,948	0,03247
380,158	0,0323
380,367	0,03489
380,576	0,03576
380,786	0,03199
380,995	0,03229
381,204	0,03294
381,414	0,03044
381,623	0,0308
381,832	0,03204
382,041	0,03077
382,251	0,03505
382,46	0,03487
382,669	0,02831
382,878	0,02844
383,088	0,03018
383,297	0,02732
383,506	0,02953
383,715	0,03019
383,924	0,02496
384,133	0,02444
384,342	0,02719
384,552	0,02483
384,761	0,03041
384,97	0,03486
385,179	0,03841
385,388	0,03779
385,597	0,03534
385,806	0,03344
386,015	0,03093
386,224	0,03397
386,433	0,03053
386,642	0,0281
386,851	0,02797
387,06	0,02582
387,269	0,02374
387,478	0,01901
387,687	0,02214
387,896	0,02498
388,105	0,02522
388,314	0,02148
388,523	0,01886
388,731	0,02296
388,94	0,02685
389,149	0,02797
389,358	0,02437
389,567	0,02552
389,776	0,02607
389,984	0,02373
390,193	0,02462
390,402	0,0212
390,611	0,02547
390,819	0,02468
391,028	0,02466
391,237	0,02215
391,446	0,01816
391,654	0,02046
391,863	0,01926
392,072	0,01854
392,28	0,02305
392,489	0,02001
392,698	0,02038
392,906	0,02072
393,115	0,02102
393,324	0,02095
393,532	0,01986
393,741	0,01908
393,949	0,01383
394,158	0,01427
394,366	0,01344
394,575	0,0084
394,783	0,01025
394,992	0,00821
395,2	0,00691
395,409	0,00618
395,617	0,00379
395,826	0,00347
396,034	0,00432
396,243	0,00652
396,451	0,00665
396,66	0,0095
396,868	0,00993
397,076	0,00894
397,285	0,00946
397,493	0,01087
397,701	0,01234
397,91	0,01109
398,118	0,0135
398,326	0,01588
398,535	0,01406
398,743	0,01593
398,951	0,01277
399,159	0,01521
399,368	0,01719
399,576	0,01855
399,784	0,01929
399,992	0,01909
400,201	0,01981
400,409	0,0172
400,617	0,0171
400,825	0,02101
401,033	0,02143
401,241	0,02139
401,45	0,02035
401,658	0,01994
401,866	0,02205
402,074	0,01989
402,282	0,0195
402,49	0,02107
402,698	0,02325
402,906	0,02097
403,114	0,01906
403,322	0,01555
403,53	0,01895
403,738	0,01643
403,946	0,01441
404,154	0,01054
404,362	0,01111
404,57	0,01035
404,778	0,00913
404,986	0,00884
405,194	0,0094
405,402	0,01057
405,609	0,01239
405,817	0,00759
406,025	0,01135
406,233	0,01574
406,441	0,01919
406,649	0,01857
406,856	0,01948
407,064	0,02054
407,272	0,0194
407,48	0,02026
407,687	0,01945
407,895	0,01926
408,103	0,02177
408,311	0,0204
408,518	0,0162
408,726	0,01668
408,934	0,01691
409,141	0,01747
409,349	0,01459
409,557	0,01684
409,764	0,01707
409,972	0,01834
410,18	0,01565
410,387	0,01669
410,595	0,0163
410,802	0,01618
411,01	0,0143
411,217	0,01403
411,425	0,01424
411,632	0,01694
411,84	0,01545
412,047	0,01281
412,255	0,01089
412,462	0,01258
412,67	0,00988
412,877	0,01127
413,085	0,01281
413,292	0,0131
413,499	0,01522
413,707	0,01533
413,914	0,01407
414,122	0,01292
414,329	0,01569
414,536	0,015
414,744	0,01437
414,951	0,01536
415,158	0,01359
415,366	0,01242
415,573	0,01353
415,78	0,01346
415,987	0,01207
416,195	0,0126
416,402	0,01311
416,609	0,01375
416,816	0,01458
417,023	0,01545
417,231	0,01517
417,438	0,01542
417,645	0,01417
417,852	0,01215
418,059	0,01042
418,266	0,01049
418,473	0,00996
418,68	0,01044
418,888	0,00925
419,095	0,01097
419,302	0,00977
419,509	0,01058
419,716	0,01136
419,923	0,01368
420,13	0,01497
420,337	0,01637
420,544	0,01721
420,751	0,01619
420,958	0,01574
421,165	0,01482
421,371	0,01334
421,578	0,01396
421,785	0,01311
421,992	0,01321
422,199	0,01232
422,406	0,01231
422,613	0,01075
422,82	0,01006
423,026	0,01144
423,233	0,01097
423,44	0,01083
423,647	0,01125
423,854	0,01158
424,06	0,01153
424,267	0,01091
424,474	0,01159
424,681	0,01039
424,887	0,01061
425,094	0,00995
425,301	0,01051
425,507	0,01064
425,714	0,01056
425,921	0,00991
426,127	0,00862
426,334	0,00932
426,54	0,00844
426,747	0,00767
426,954	0,00671
427,16	0,00765
427,367	0,00777
427,573	0,00646
427,78	0,00669
427,986	0,00717
428,193	0,00711
428,399	0,00912
428,606	0,00822
428,812	0,00914
429,019	0,0089
429,225	0,01033
429,432	0,01142
429,638	0,01137
429,845	0,01156
430,051	0,012
430,257	0,01115
430,464	0,01114
430,67	0,01051
430,876	0,01133
431,083	0,01068
431,289	0,0118
431,495	0,01281
431,702	0,01179
431,908	0,01197
432,114	0,01071
432,32	0,01061
432,527	0,01085
432,733	0,00966
432,939	0,0091
433,145	0,00906
433,351	0,01007
433,558	0,00974
433,764	0,00903
433,97	0,00739
434,176	0,00703
434,382	0,00802
434,588	0,00683
434,794	0,00631
435,001	0,00849
435,207	0,00913
435,413	0,0085
435,619	0,00805
435,825	0,00756
436,031	0,00728
436,237	0,00871
436,443	0,00964
436,649	0,00966
436,855	0,01037
437,061	0,01127
437,267	0,01047
437,473	0,01031
437,679	0,01075
437,884	0,0105
438,09	0,00958
438,296	0,00863
438,502	0,00741
438,708	0,00649
438,914	0,00612
439,12	0,00679
439,325	0,00642
439,531	0,00705
439,737	0,00617
439,943	0,00579
440,149	0,00559
440,354	0,0065
440,56	0,00692
440,766	0,00688
440,972	0,00712
441,177	0,0075
441,383	0,00687
441,589	0,00785
441,794	0,00758
442	0,00871
442,206	0,00849
442,411	0,00884
442,617	0,00845
442,822	0,00871
443,028	0,0092
443,234	0,01078
443,439	0,01076
443,645	0,01137
443,85	0,01096
444,056	0,01051
444,261	0,01027
444,467	0,01106
444,672	0,01069
444,878	0,01138
445,083	0,0118
445,289	0,01232
445,494	0,01095
445,699	0,0115
445,905	0,01104
446,11	0,0115
446,316	0,01132
446,521	0,01075
446,726	0,01014
446,932	0,01049
447,137	0,01033
447,342	0,00975
447,548	0,0086
447,753	0,00909
447,958	0,00858
448,164	0,00766
448,369	0,00674
448,574	0,00635
448,779	0,00673
448,984	0,0066
449,19	0,00666
449,395	0,00662
449,6	0,00625
449,805	0,00705
450,01	0,00729
450,215	0,00754
450,421	0,00892
450,626	0,0095
450,831	0,0094
451,036	0,00856
451,241	0,00991
451,446	0,00944
451,651	0,00941
451,856	0,01003
452,061	0,01051
452,266	0,01031
452,471	0,01026
452,676	0,00935
452,881	0,00905
453,086	0,01003
453,291	0,01069
453,496	0,00969
453,701	0,01104
453,906	0,01133
454,111	0,01105
454,316	0,01056
454,52	0,0104
454,725	0,01007
454,93	0,01067
455,135	0,01061
455,34	0,01006
455,545	0,01093
455,749	0,01116
455,954	0,0098
456,159	0,00946
456,364	0,01015
456,568	0,01073
456,773	0,01092
456,978	0,01198
457,182	0,01265
457,387	0,01252
457,592	0,01243
457,796	0,01123
458,001	0,01142
458,206	0,01189
458,41	0,01229
458,615	0,01193
458,82	0,01104
459,024	0,01111
459,229	0,01046
459,433	0,00959
459,638	0,00954
459,842	0,01068
460,047	0,01112
460,251	0,01065
460,456	0,01024
460,66	0,01011
460,865	0,01006
461,069	0,01077
461,274	0,01067
461,478	0,0109
461,682	0,01092
461,887	0,01131
462,091	0,01055
462,296	0,01086
462,5	0,01098
462,704	0,01108
462,909	0,01015
463,113	0,00991
463,317	0,00934
463,522	0,00942
463,726	0,00928
463,93	0,0095
464,134	0,00957
464,339	0,00992
464,543	0,00941
464,747	0,0095
464,951	0,01019
465,155	0,01126
465,36	0,01214
465,564	0,01229
465,768	0,01213
465,972	0,01293
466,176	0,01269
466,38	0,01277
466,584	0,01291
466,788	0,0128
466,993	0,01264
467,197	0,01229
467,401	0,01215
467,605	0,0116
467,809	0,01193
468,013	0,01275
468,217	0,01211
468,421	0,01227
468,625	0,01179
468,829	0,01126
469,033	0,0116
469,236	0,01235
469,44	0,01221
469,644	0,0125
469,848	0,01278
470,052	0,01325
470,256	0,01255
470,46	0,01263
470,664	0,01249
470,867	0,01293
471,071	0,01353
471,275	0,01347
471,479	0,01321
471,683	0,0135
471,886	0,01391
472,09	0,0139
472,294	0,01337
472,497	0,01342
472,701	0,01345
472,905	0,01353
473,109	0,01379
473,312	0,01317
473,516	0,01357
473,719	0,01349
473,923	0,01329
474,127	0,01278
474,33	0,01227
474,534	0,01284
474,737	0,01349
474,941	0,01351
475,145	0,01352
475,348	0,01358
475,552	0,01421
475,755	0,01425
475,959	0,01486
476,162	0,01558
476,366	0,01587
476,569	0,0163
476,772	0,01609
476,976	0,01602
477,179	0,01635
477,383	0,01682
477,586	0,01679
477,789	0,01684
477,993	0,01708
478,196	0,01693
478,399	0,01669
478,603	0,01673
478,806	0,01703
479,009	0,01671
479,213	0,01652
479,416	0,01621
479,619	0,01651
479,822	0,01672
480,026	0,01688
480,229	0,0164
480,432	0,01671
480,635	0,01622
480,838	0,0164
481,041	0,01614
481,245	0,01638
481,448	0,01609
481,651	0,01632
481,854	0,01596
482,057	0,01583
482,26	0,01593
482,463	0,01595
482,666	0,01581
482,869	0,01663
483,072	0,01659
483,275	0,01687
483,478	0,01682
483,681	0,01731
483,884	0,0176
484,087	0,01779
484,29	0,0181
484,493	0,01806
484,696	0,01859
484,899	0,01893
485,102	0,01878
485,305	0,01865
485,508	0,01889
485,71	0,01927
485,913	0,01941
486,116	0,01906
486,319	0,01939
486,522	0,01943
486,725	0,01935
486,927	0,01967
487,13	0,01969
487,333	0,01981
487,536	0,02028
487,738	0,02049
487,941	0,02034
488,144	0,02045
488,346	0,02087
488,549	0,02069
488,752	0,02091
488,954	0,02122
489,157	0,02096
489,359	0,02076
489,562	0,02079
489,765	0,0206
489,967	0,02073
490,17	0,02125
490,372	0,02143
490,575	0,02136
490,777	0,02176
490,98	0,02183
491,182	0,02178
491,385	0,02217
491,587	0,02226
491,79	0,0226
491,992	0,02292
492,195	0,02285
492,397	0,02274
492,599	0,02264
492,802	0,0229
493,004	0,02307
493,207	0,02315
493,409	0,02334
493,611	0,02331
493,814	0,02378
494,016	0,02387
494,218	0,02373
494,42	0,02397
494,623	0,02424
494,825	0,02444
495,027	0,02441
495,229	0,02443
495,432	0,02443
495,634	0,02461
495,836	0,02499
496,038	0,02505
496,24	0,02516
496,442	0,02556
496,645	0,02543
496,847	0,02554
497,049	0,02565
497,251	0,02598
497,453	0,02608
497,655	0,02636
497,857	0,02669
498,059	0,02691
498,261	0,02695
498,463	0,02712
498,665	0,02713
498,867	0,02748
499,069	0,02772
499,271	0,0279
499,473	0,028
499,675	0,02817
499,877	0,02808
500,079	0,02834
500,281	0,02808
500,482	0,0283
500,684	0,02843
500,886	0,02867
501,088	0,02864
501,29	0,02884
501,492	0,02897
501,693	0,0294
501,895	0,02989
502,097	0,03033
502,299	0,03032
502,5	0,0306
502,702	0,03093
502,904	0,0312
503,106	0,0315
503,307	0,03188
503,509	0,032
503,711	0,03234
503,912	0,03255
504,114	0,03233
504,315	0,03244
504,517	0,03257
504,719	0,03281
504,92	0,03269
505,122	0,03282
505,323	0,03289
505,525	0,03307
505,726	0,03338
505,928	0,03348
506,129	0,03362
506,331	0,03401
506,532	0,03442
506,734	0,03452
506,935	0,0347
507,137	0,03482
507,338	0,03484
507,539	0,03503
507,741	0,03532
507,942	0,03539
508,143	0,03585
508,345	0,03575
508,546	0,03579
508,747	0,03607
508,949	0,03652
509,15	0,03647
509,351	0,03687
509,553	0,03709
509,754	0,03731
509,955	0,03737
510,156	0,03777
510,357	0,03755
510,559	0,03799
510,76	0,03811
510,961	0,03822
511,162	0,03834
511,363	0,0386
511,564	0,03877
511,766	0,03917
511,967	0,03952
512,168	0,0398
512,369	0,03989
512,57	0,04027
512,771	0,04066
512,972	0,04096
513,173	0,04122
513,374	0,0412
513,575	0,04167
513,776	0,04195
513,977	0,04179
514,178	0,04188
514,379	0,042
514,58	0,04215
514,781	0,04261
514,981	0,04279
515,182	0,04297
515,383	0,04324
515,584	0,04361
515,785	0,04366
515,986	0,04377
516,187	0,0445
516,387	0,04468
516,588	0,04506
516,789	0,04527
516,99	0,04521
517,19	0,04524
517,391	0,04565
517,592	0,04572
517,793	0,046
517,993	0,04639
518,194	0,04674
518,395	0,04671
518,595	0,04702
518,796	0,04709
518,996	0,04738
519,197	0,04761
519,398	0,04781
519,598	0,04813
519,799	0,04833
519,999	0,04862
520,2	0,04891
520,4	0,0492
520,601	0,04959
520,801	0,04995
521,002	0,05033
521,202	0,05064
521,403	0,05105
521,603	0,05136
521,804	0,05137
522,004	0,05161
522,204	0,05172
522,405	0,05175
522,605	0,05199
522,806	0,05207
523,006	0,05218
523,206	0,05258
523,407	0,05301
523,607	0,05327
523,807	0,0535
524,007	0,0538
524,208	0,05412
524,408	0,05427
524,608	0,05469
524,808	0,05484
525,009	0,05534
525,209	0,05557
525,409	0,05571
525,609	0,05577
525,809	0,05611
526,009	0,05635
526,209	0,0566
526,41	0,05672
526,61	0,05731
526,81	0,05753
527,01	0,0578
527,21	0,05785
527,41	0,05814
527,61	0,05832
527,81	0,05835
528,01	0,05846
528,21	0,05879
528,41	0,05902
528,61	0,0593
528,81	0,0595
529,01	0,05968
529,21	0,05994
529,41	0,05998
529,609	0,06021
529,809	0,06039
530,009	0,0609
530,209	0,06112
530,409	0,06119
530,609	0,06149
530,808	0,06165
531,008	0,06174
531,208	0,06205
531,408	0,06225
531,608	0,06268
531,807	0,06277
532,007	0,06304
532,207	0,06315
532,406	0,06323
532,606	0,0635
532,806	0,06372
533,005	0,0639
533,205	0,06397
533,405	0,064
533,604	0,06422
533,804	0,0644
534,003	0,06465
534,203	0,06483
534,403	0,0648
534,602	0,06496
534,802	0,06506
535,001	0,06514
535,201	0,06533
535,4	0,06556
535,6	0,06582
535,799	0,06597
535,998	0,06621
536,198	0,06639
536,397	0,06661
536,597	0,067
536,796	0,06739
536,995	0,06771
537,195	0,06788
537,394	0,06809
537,594	0,06848
537,793	0,06865
537,992	0,06888
538,191	0,06916
538,391	0,06923
538,59	0,06927
538,789	0,06939
538,988	0,06931
539,188	0,06939
539,387	0,06973
539,586	0,07005
539,785	0,07
539,984	0,07013
540,184	0,07011
540,383	0,07003
540,582	0,07023
540,781	0,07044
540,98	0,0706
541,179	0,07097
541,378	0,07107
541,577	0,07104
541,776	0,0709
541,975	0,07126
542,174	0,07135
542,373	0,07166
542,572	0,07172
542,771	0,07179
542,97	0,0718
543,169	0,07182
543,368	0,07184
543,567	0,07204
543,766	0,07204
543,965	0,07235
544,164	0,0722
544,362	0,07251
544,561	0,07252
544,76	0,07273
544,959	0,07291
545,158	0,07317
545,356	0,07333
545,555	0,07351
545,754	0,07361
545,953	0,07381
546,151	0,07397
546,35	0,07425
546,549	0,07421
546,748	0,07439
546,946	0,07447
547,145	0,07465
547,344	0,07468
547,542	0,07489
547,741	0,07492
547,939	0,07499
548,138	0,07512
548,337	0,07506
548,535	0,07506
548,734	0,07518
548,932	0,07511
549,131	0,07521
549,329	0,07529
549,528	0,07555
549,726	0,07555
549,925	0,07561
550,123	0,07585
550,322	0,07601
550,52	0,07631
550,718	0,07639
550,917	0,0764
551,115	0,07648
551,313	0,07665
551,512	0,07683
551,71	0,07678
551,908	0,07689
552,107	0,07709
552,305	0,07713
552,503	0,07721
552,702	0,0771
552,9	0,0771
553,098	0,07732
553,296	0,07756
553,495	0,07758
553,693	0,07742
553,891	0,07753
554,089	0,07755
554,287	0,07756
554,485	0,07761
554,683	0,07746
554,882	0,07748
555,08	0,07759
555,278	0,07754
555,476	0,07756
555,674	0,07763
555,872	0,07769
556,07	0,07764
556,268	0,0779
556,466	0,07793
556,664	0,07797
556,862	0,07819
557,06	0,07839
557,258	0,07862
557,456	0,07881
557,654	0,07881
557,851	0,07889
558,049	0,079
558,247	0,07919
558,445	0,07918
558,643	0,07918
558,841	0,07923
559,039	0,07943
559,236	0,07954
559,434	0,0797
559,632	0,07968
559,83	0,07985
560,027	0,07996
560,225	0,08009
560,423	0,08012
560,62	0,08022
560,818	0,08028
561,016	0,08045
561,213	0,0805
561,411	0,08062
561,609	0,08049
561,806	0,08061
562,004	0,08066
562,202	0,08071
562,399	0,08098
562,597	0,08114
562,794	0,08116
562,992	0,08146
563,189	0,08142
563,387	0,08138
563,584	0,08154
563,782	0,08165
563,979	0,08184
564,177	0,082
564,374	0,08225
564,571	0,08229
564,769	0,08225
564,966	0,08227
565,164	0,08249
565,361	0,08254
565,558	0,08273
565,756	0,08272
565,953	0,08302
566,15	0,08315
566,347	0,0833
566,545	0,0833
566,742	0,08349
566,939	0,08375
567,136	0,0839
567,334	0,08382
567,531	0,08407
567,728	0,0843
567,925	0,08459
568,122	0,0847
568,319	0,0848
568,517	0,08499
568,714	0,0853
568,911	0,08538
569,108	0,08569
569,305	0,08595
569,502	0,08631
569,699	0,08669
569,896	0,08684
570,093	0,08694
570,29	0,08715
570,487	0,08743
570,684	0,08781
570,881	0,08798
571,078	0,08826
571,275	0,08846
571,472	0,08874
571,669	0,08885
571,866	0,08904
572,062	0,08924
572,259	0,08953
572,456	0,08962
572,653	0,08975
572,85	0,0897
573,047	0,08992
573,243	0,09002
573,44	0,08999
573,637	0,09012
573,834	0,09028
574,03	0,09046
574,227	0,09051
574,424	0,0908
574,62	0,09111
574,817	0,09138
575,014	0,09178
575,21	0,09181
575,407	0,09198
575,604	0,09234
575,8	0,09265
575,997	0,09299
576,193	0,09303
576,39	0,09347
576,586	0,09356
576,783	0,09381
576,979	0,09399
577,176	0,09407
577,372	0,09424
577,569	0,09444
577,765	0,0946
577,962	0,09483
578,158	0,09499
578,355	0,09529
578,551	0,09555
578,747	0,09574
578,944	0,09592
579,14	0,09609
579,336	0,09629
579,533	0,09665
579,729	0,09689
579,925	0,09712
580,122	0,09725
580,318	0,09746
580,514	0,09765
580,71	0,09769
580,906	0,09794
581,103	0,09821
581,299	0,09843
581,495	0,09869
581,691	0,09894
581,887	0,09934
582,084	0,09961
582,28	0,09986
582,476	0,10006
582,672	0,10031
582,868	0,10049
583,064	0,1007
583,26	0,10083
583,456	0,10112
583,652	0,10135
583,848	0,10156
584,044	0,1015
584,24	0,10166
584,436	0,10176
584,632	0,10177
584,828	0,10188
585,024	0,10212
585,22	0,10211
585,416	0,1021
585,611	0,10219
585,807	0,10224
586,003	0,1023
586,199	0,10239
586,395	0,10252
586,591	0,10265
586,786	0,10286
586,982	0,10294
587,178	0,1031
587,374	0,10319
587,569	0,10328
587,765	0,10329
587,961	0,10327
588,156	0,10334
588,352	0,10345
588,548	0,10337
588,743	0,10352
588,939	0,10339
589,135	0,10345
589,33	0,10339
589,526	0,10337
589,721	0,10341
589,917	0,10331
590,112	0,10335
590,308	0,10321
590,503	0,10332
590,699	0,10333
590,894	0,10321
591,09	0,10339
591,285	0,10326
591,481	0,10322
591,676	0,10331
591,872	0,10317
592,067	0,10308
592,262	0,10297
592,458	0,103
592,653	0,1028
592,848	0,10266
593,044	0,10257
593,239	0,10231
593,434	0,10216
593,629	0,10194
593,825	0,10162
594,02	0,10153
594,215	0,10144
594,41	0,10133
594,606	0,10108
594,801	0,10091
594,996	0,10077
595,191	0,10063
595,386	0,10048
595,581	0,10026
595,777	0,10008
595,972	0,09988
596,167	0,09963
596,362	0,09938
596,557	0,09919
596,752	0,09905
596,947	0,09876
597,142	0,09854
597,337	0,09819
597,532	0,09796
597,727	0,09778
597,922	0,09753
598,117	0,09722
598,312	0,09714
598,507	0,09682
598,701	0,09627
598,896	0,09583
599,091	0,09547
599,286	0,09512
599,481	0,09458
599,676	0,0942
599,87	0,09374
600,065	0,09331
600,26	0,09303
600,455	0,09243
600,65	0,09207
600,844	0,09174
601,039	0,09124
601,234	0,09088
601,428	0,0905
601,623	0,09019
601,818	0,08981
602,012	0,08947
602,207	0,08906
602,402	0,08864
602,596	0,08813
602,791	0,08761
602,985	0,0874
603,18	0,08701
603,374	0,08649
603,569	0,08594
603,763	0,0856
603,958	0,08505
604,152	0,08448
604,347	0,08397
604,541	0,0834
604,736	0,08294
604,93	0,08252
605,125	0,08176
605,319	0,08131
605,513	0,08087
605,708	0,08039
605,902	0,07978
606,096	0,0793
606,291	0,07884
606,485	0,07827
606,679	0,07783
606,874	0,07738
607,068	0,07685
607,262	0,07647
607,456	0,07599
607,65	0,07534
607,845	0,07481
608,039	0,07434
608,233	0,07375
608,427	0,07313
608,621	0,07275
608,815	0,07223
609,01	0,07166
609,204	0,07109
609,398	0,07059
609,592	0,07011
609,786	0,06968
609,98	0,0693
610,174	0,06874
610,368	0,0683
610,562	0,06784
610,756	0,06714
610,95	0,06667
611,144	0,06609
611,338	0,06553
611,532	0,06477
611,726	0,06421
611,919	0,06379
612,113	0,06302
612,307	0,06244
612,501	0,06184
612,695	0,06139
612,889	0,06093
613,082	0,06031
613,276	0,05987
613,47	0,05947
613,664	0,05907
613,857	0,0584
614,051	0,05786
614,245	0,05742
614,439	0,05704
614,632	0,05659
614,826	0,05597
615,02	0,05536
615,213	0,05491
615,407	0,05444
615,6	0,0539
615,794	0,05339
615,988	0,05294
616,181	0,05238
616,375	0,05181
616,568	0,05119
616,762	0,05071
616,955	0,05036
617,149	0,05001
617,342	0,04936
617,536	0,0488
617,729	0,04836
617,923	0,04797
618,116	0,0476
618,309	0,0471
618,503	0,04674
618,696	0,04642
618,889	0,04593
619,083	0,04529
619,276	0,04476
619,469	0,04432
619,663	0,04396
619,856	0,04344
620,049	0,04308
620,242	0,04255
620,436	0,042
620,629	0,04163
620,822	0,04116
621,015	0,04065
621,209	0,0404
621,402	0,04008
621,595	0,03975
621,788	0,03936
621,981	0,03903
622,174	0,03853
622,367	0,03814
622,56	0,03793
622,753	0,03748
622,946	0,0371
623,139	0,03681
623,332	0,03632
623,525	0,03583
623,718	0,0354
623,911	0,03493
624,104	0,03457
624,297	0,03421
624,49	0,03397
624,683	0,03361
624,876	0,03336
625,069	0,0329
625,262	0,03258
625,454	0,03221
625,647	0,032
625,84	0,03169
626,033	0,03146
626,226	0,031
626,418	0,03075
626,611	0,03036
626,804	0,02993
626,997	0,02942
627,189	0,02923
627,382	0,02894
627,575	0,02865
627,767	0,02838
627,96	0,02813
628,153	0,02774
628,345	0,02754
628,538	0,02726
628,731	0,02688
628,923	0,02671
629,116	0,02654
629,308	0,02618
629,501	0,02585
629,693	0,02567
629,886	0,02536
630,078	0,02501
630,271	0,02481
630,463	0,02461
630,656	0,02424
630,848	0,02403
631,04	0,02382
631,233	0,02352
631,425	0,02331
631,617	0,02308
631,81	0,02281
632,002	0,02258
632,194	0,02246
632,387	0,02217
632,579	0,02189
632,771	0,02165
632,964	0,0215
633,156	0,02119
633,348	0,02089
633,54	0,02068
633,732	0,02039
633,925	0,02007
634,117	0,01997
634,309	0,01969
634,501	0,01943
634,693	0,01912
634,885	0,01895
635,077	0,01871
635,269	0,01857
635,462	0,01846
635,654	0,01821
635,846	0,01812
636,038	0,01795
636,23	0,01761
636,422	0,01743
636,614	0,01725
636,806	0,01712
636,997	0,01707
637,189	0,01688
637,381	0,01662
637,573	0,01645
637,765	0,01631
637,957	0,01605
638,149	0,01601
638,341	0,01599
638,532	0,01578
638,724	0,01561
638,916	0,01556
639,108	0,01529
639,299	0,01517
639,491	0,015
639,683	0,01497
639,875	0,01482
640,066	0,01474
640,258	0,01441
640,45	0,01413
640,641	0,0142
640,833	0,01417
641,025	0,01403
641,216	0,01392
641,408	0,01375
641,599	0,01364
641,791	0,0134
641,982	0,01327
642,174	0,01314
642,366	0,0132
642,557	0,01304
642,748	0,01275
642,94	0,01252
643,131	0,01227
643,323	0,01213
643,514	0,01204
643,706	0,0119
643,897	0,01181
644,088	0,01169
644,28	0,01159
644,471	0,01142
644,662	0,01141
644,854	0,01138
645,045	0,01134
645,236	0,0112
645,428	0,01103
645,619	0,01089
645,81	0,01092
646,001	0,01073
646,193	0,01069
646,384	0,01049
646,575	0,01036
646,766	0,01027
646,957	0,01011
647,148	0,00992
647,339	0,00991
647,531	0,00997
647,722	0,00983
647,913	0,00961
648,104	0,00961
648,295	0,00936
648,486	0,00924
648,677	0,00901
648,868	0,00892
649,059	0,00878
649,25	0,00875
649,441	0,00877
649,632	0,00852
649,823	0,00849
650,013	0,00847
650,204	0,00838
650,395	0,00835
650,586	0,00849
650,777	0,00859
650,968	0,0084
651,159	0,00843
651,349	0,00832
651,54	0,00805
651,731	0,00796
651,922	0,00793
652,112	0,00788
652,303	0,00777
652,494	0,00773
652,684	0,00751
652,875	0,00744
653,066	0,00745
653,256	0,0074
653,447	0,00736
653,638	0,0074
653,828	0,00737
654,019	0,00729
654,209	0,00714
654,4	0,00704
654,59	0,00706
654,781	0,00706
654,972	0,007
655,162	0,00695
655,352	0,00673
655,543	0,00665
655,733	0,00662
655,924	0,00667
656,114	0,00655
656,305	0,00659
656,495	0,00657
656,685	0,00644
656,876	0,00631
657,066	0,00627
657,256	0,00621
657,447	0,00635
657,637	0,00632
657,827	0,00626
658,017	0,00622
658,208	0,00619
658,398	0,0061
658,588	0,00607
658,778	0,00604
658,968	0,00604
659,159	0,00601
659,349	0,00592
659,539	0,00579
659,729	0,00576
659,919	0,00574
660,109	0,00561
660,299	0,00572
660,489	0,00569
660,679	0,00567
660,869	0,00554
661,059	0,00551
661,249	0,0054
661,439	0,00538
661,629	0,00533
661,819	0,00534
662,009	0,00531
662,199	0,00536
662,389	0,00526
662,579	0,00523
662,769	0,00513
662,959	0,00514
663,149	0,00511
663,338	0,00515
663,528	0,00514
663,718	0,00513
663,908	0,005
664,097	0,00488
664,287	0,00472
664,477	0,00463
664,667	0,00455
664,856	0,00461
665,046	0,00465
665,236	0,00457
665,425	0,0045
665,615	0,00447
665,805	0,00443
665,994	0,00456
666,184	0,00463
666,373	0,00467
666,563	0,00466
666,753	0,0047
666,942	0,00462
667,132	0,00446
667,321	0,00447
667,511	0,00445
667,7	0,00442
667,889	0,00432
668,079	0,00421
668,268	0,00415
668,458	0,00409
668,647	0,0041
668,836	0,00402
669,026	0,00401
669,215	0,00401
669,404	0,00411
669,594	0,00411
669,783	0,00415
669,972	0,00424
670,162	0,00417
670,351	0,00405
670,54	0,00397
670,729	0,00393
670,919	0,00397
671,108	0,00386
671,297	0,0039
671,486	0,00372
671,675	0,00367
671,864	0,00359
672,053	0,00358
672,243	0,00373
672,432	0,00377
672,621	0,00382
672,81	0,00376
672,999	0,00376
673,188	0,00394
673,377	0,00392
673,566	0,00397
673,755	0,00396
673,944	0,0038
674,133	0,00366
674,322	0,00354
674,51	0,00363
674,699	0,00362
674,888	0,00357
675,077	0,0035
675,266	0,00329
675,455	0,00331
675,644	0,00323
675,832	0,00314
676,021	0,00325
676,21	0,00335
676,399	0,00321
676,587	0,00306
676,776	0,003
676,965	0,00301
677,153	0,00304
677,342	0,00307
677,531	0,003
677,719	0,00294
677,908	0,00294
678,097	0,00295
678,285	0,00284
678,474	0,00296
678,662	0,00306
678,851	0,00305
679,039	0,00302
679,228	0,00291
679,416	0,00294
679,605	0,00295
679,793	0,00306
679,982	0,00308
680,17	0,003
680,359	0,00309
680,547	0,00299
680,736	0,00295
680,924	0,00307
681,112	0,00307
681,301	0,00314
681,489	0,00317
681,677	0,00318
681,866	0,00304
682,054	0,00305
682,242	0,003
682,43	0,00305
682,619	0,00303
682,807	0,00297
682,995	0,00276
683,183	0,00275
683,371	0,00284
683,559	0,00281
683,748	0,00279
683,936	0,00285
684,124	0,00285
684,312	0,00285
684,5	0,00262
684,688	0,00275
684,876	0,00271
685,064	0,00279
685,252	0,00279
685,44	0,00258
685,628	0,00258
685,816	0,0026
686,004	0,00254
686,192	0,00249
686,38	0,00249
686,568	0,00257
686,756	0,00243
686,944	0,00248
687,131	0,00247
687,319	0,00246
687,507	0,00247
687,695	0,00235
687,883	0,00231
688,07	0,00229
688,258	0,00232
688,446	0,00232
688,634	0,00237
688,821	0,00238
689,009	0,0023
689,197	0,00232
689,384	0,0023
689,572	0,00232
689,76	0,00234
689,947	0,00232
690,135	0,00239
690,323	0,0024
690,51	0,00247
690,698	0,00246
690,885	0,0025
691,073	0,00253
691,26	0,00244
691,448	0,00251
691,635	0,00254
691,823	0,00252
692,01	0,00252
692,197	0,00241
692,385	0,00237
692,572	0,00238
692,76	0,00233
692,947	0,00238
693,134	0,00239
693,322	0,00242
693,509	0,00231
693,696	0,0022
693,884	0,00222
694,071	0,00221
694,258	0,00223
694,445	0,0022
694,633	0,00215
694,82	0,00209
695,007	0,00201
695,194	0,00202
695,381	0,00201
695,568	0,00194
695,756	0,00202
695,943	0,00201
696,13	0,00195
696,317	0,00197
696,504	0,00204
696,691	0,00202
696,878	0,0021
697,065	0,00199
697,252	0,002
697,439	0,00206
697,626	0,0021
697,813	0,00207
698	0,00202
698,187	0,00202
698,374	0,00203
698,561	0,00196
698,747	0,00197
698,934	0,00194
699,121	0,00207
699,308	0,00199
699,495	0,00188
699,682	0,00193
699,868	0,00185
700,055	0,00178
700,242	0,00173
700,429	0,00169
700,615	0,00163
700,802	0,00163
700,989	0,00158
701,175	0,00144
701,362	0,00146
701,549	0,00149
701,735	0,0015
701,922	0,00162
702,108	0,00174
702,295	0,00176
702,482	0,00175
702,668	0,00184
702,855	0,00182
703,041	0,00189
703,228	0,00196
703,414	0,00191
703,601	0,00189
703,787	0,00186
703,973	0,00175
704,16	0,00164
704,346	0,0017
704,533	0,00169
704,719	0,00159
704,905	0,00155
705,092	0,00145
705,278	0,00151
705,464	0,00151
705,65	0,00154
705,837	0,00153
706,023	0,00151
706,209	0,00165
706,395	0,00161
706,582	0,00158
706,768	0,00168
706,954	0,00176
707,14	0,00172
707,326	0,00161
707,512	0,00157
707,698	0,0016
707,885	0,00154
708,071	0,00157
708,257	0,00146
708,443	0,00147
708,629	0,00159
708,815	0,00155
709,001	0,00143
709,187	0,00141
709,373	0,00156
709,559	0,00156
709,745	0,00158
709,93	0,00154
710,116	0,00158
710,302	0,00165
710,488	0,0017
710,674	0,00166
710,86	0,00163
711,046	0,00172
711,231	0,00175
711,417	0,00161
711,603	0,00172
711,789	0,00155
711,974	0,00162
712,16	0,00151
712,346	0,00144
712,532	0,00131
712,717	0,00134
712,903	0,00123
713,089	0,0012
713,274	0,00129
713,46	0,00133
713,645	0,00125
713,831	0,00138
714,016	0,00142
714,202	0,00157
714,388	0,00171
714,573	0,00173
714,759	0,00171
714,944	0,00171
715,129	0,0016
715,315	0,00156
715,5	0,00149
715,686	0,00151
715,871	0,00153
716,057	0,00151
716,242	0,00151
716,427	0,00143
716,613	0,00149
716,798	0,00139
716,983	0,00137
717,168	0,0015
717,354	0,00155
717,539	0,00164
717,724	0,00158
717,909	0,00157
718,095	0,00157
718,28	0,00148
718,465	0,00139
718,65	0,00136
718,835	0,00129
719,02	0,00139
719,206	0,00139
719,391	0,00132
719,576	0,00119
719,761	0,0012
719,946	0,00115
720,131	0,00112
720,316	0,00108
720,501	0,00117
720,686	0,00112
720,871	0,00132
721,056	0,00136
721,241	0,00132
721,426	0,00135
721,61	0,00144
721,795	0,00147
721,98	0,00146
722,165	0,00151
722,35	0,00172
722,535	0,00168
722,719	0,00173
722,904	0,00164
723,089	0,00161
723,274	0,00155
723,458	0,00139
723,643	0,00141
723,828	0,00131
724,013	0,00125
724,197	0,00119
724,382	0,00105
724,567	0,00104
724,751	0,00106
724,936	0,00105
725,12	0,001
725,305	0,0011
725,489	0,00123
725,674	0,00118
725,859	0,00125
726,043	0,00131
726,228	0,0014
726,412	0,00134
726,596	0,00131
726,781	0,00136
726,965	0,00138
727,15	0,00148
727,334	0,00138
727,518	0,00125
727,703	0,00125
727,887	0,00127
728,072	0,00123
728,256	0,0012
728,44	0,0012
728,624	0,00127
728,809	0,00109
728,993	0,00106
729,177	0,00096
729,361	0,00103
729,546	0,00112
729,73	0,00117
729,914	0,00105
730,098	0,00102
730,282	0,00092
730,466	0,00088
730,65	0,0009
730,834	0,00104
731,019	0,00109
731,203	0,00115
731,387	0,00117
731,571	0,00106
731,755	0,00104
731,939	0,00104
732,123	0,00106
732,306	0,00104
732,49	0,00112
732,674	0,00111
732,858	0,00118
733,042	0,00115
733,226	0,00117
733,41	0,00116
733,594	0,00122
733,778	0,00121
733,961	0,00133
734,145	0,00133
734,329	0,00147
734,513	0,00149
734,696	0,00142
734,88	0,00127
735,064	0,00117
735,247	0,00107
735,431	0,00105
735,615	0,00107
735,798	0,00123
735,982	0,00123
736,166	0,00131
736,349	0,00117
736,533	0,00117
736,716	0,00127
736,9	0,00133
737,083	0,00137
737,267	0,0013
737,45	0,00122
737,634	0,00129
737,817	0,00112
738,001	0,0011
738,184	0,00097
738,368	0,00113
738,551	0,00105
738,734	0,00099
738,918	0,00104
739,101	0,00117
739,284	0,00118
739,468	0,00122
739,651	0,0013
739,834	0,00131
740,018	0,00131
740,201	0,00135
740,384	0,0013
740,567	0,0014
740,75	0,0014
740,934	0,00129
741,117	0,00123
741,3	0,0014
741,483	0,00136
741,666	0,00116
741,849	0,00114
742,032	0,00111
742,215	0,00105
742,399	0,00104
742,582	0,00102
742,765	0,001
742,948	0,0011
743,131	0,00119
743,314	0,00102
743,496	0,00104
743,679	0,0011
743,862	0,00118
744,045	0,00125
744,228	0,00127
744,411	0,00121
744,594	0,00117
744,777	0,00123
744,959	0,00118
745,142	0,00117
745,325	0,00131
745,508	0,00132
745,691	0,00139
745,873	0,00124
746,056	0,00113
746,239	0,00117
746,421	0,00134
746,604	0,00128
746,787	0,00125
746,969	0,0013
747,152	0,00112
747,335	0,00111
747,517	0,00118
747,7	0,00121
747,882	0,00132
748,065	0,00127
748,247	0,00129
748,43	0,00109
748,612	0,00113
748,795	0,00114
748,977	0,00111
749,16	0,0011
749,342	0,00107
749,524	0,00105
749,707	0,00105
749,889	0,00097
750,072	0,00103
750,254	0,00102
750,436	0,00102
750,619	0,00102
750,801	0,00097
750,983	0,00091
751,165	0,00101
751,348	0,00108
751,53	0,00098
751,712	0,00099
751,894	0,00101
752,076	0,00115
752,259	0,00119
752,441	0,00126
752,623	0,00129
752,805	0,00126
752,987	0,0012
753,169	0,00119
753,351	0,00107
753,533	0,00113
753,715	0,00107
753,897	0,00107
754,079	0,0011
754,261	0,00102
754,443	0,00101
754,625	0,001
754,807	0,0011
754,989	0,00125
755,171	0,00128
755,353	0,00126
755,534	0,00119
755,716	0,00124
755,898	0,0012
756,08	0,00117
756,262	0,00106
756,443	0,00089
756,625	0,00086
756,807	0,00076
756,989	0,00069
757,17	0,00061
757,352	0,00068
757,534	0,00082
757,715	0,00081
757,897	0,00087
758,079	0,00083
758,26	0,00101
758,442	0,0012
758,623	0,00115
758,805	0,00117
758,987	0,00117
759,168	0,00113
759,35	0,00106
759,531	0,00104
759,713	0,00097
759,894	0,00093
760,075	0,00085
760,257	0,00073
760,438	0,00067
760,62	0,00074
760,801	0,00073
760,982	0,00069
761,164	0,0007
761,345	0,0008
761,526	0,00079
761,708	0,0009
761,889	0,00088
762,07	0,00094
762,251	0,00111
762,433	0,00127
762,614	0,00126
762,795	0,00128
762,976	0,00131
763,157	0,00136
763,338	0,00126
763,52	0,00119
763,701	0,00102
763,882	0,00103
764,063	0,00108
764,244	0,00104
764,425	0,00092
764,606	0,00083
764,787	0,00083
764,968	0,00087
765,149	0,0008
765,33	0,00071
765,511	0,00068
765,692	0,0007
765,873	0,00065
766,053	0,00055
766,234	0,00049
766,415	0,00049
766,596	0,00045
766,777	0,00031
766,958	0,00022
767,138	0,00032
767,319	0,00035
767,5	0,00041
767,681	0,00037
767,861	0,00051
768,042	0,00051
768,223	0,00049
768,403	0,00039
768,584	0,00051
768,765	0,00061
768,945	0,00057
769,126	0,0006
769,307	0,00072
769,487	0,00067
769,668	0,00077
769,848	0,0007
770,029	0,00078
770,209	0,00074
770,39	0,0008
770,57	0,00076
770,751	0,00073
770,931	0,00075
771,111	0,00063
771,292	0,00061
771,472	0,00067
771,653	0,00062
771,833	0,00055
772,013	0,0005
772,194	0,00059
772,374	0,00046
772,554	0,00056
772,734	0,00061
772,915	0,00068
773,095	0,00074
773,275	0,00073
773,455	0,00071
773,635	0,00063
773,816	0,00067
773,996	0,00069
774,176	0,00061
774,356	0,00069
774,536	0,00058
774,716	0,00053
774,896	0,00045
775,076	0,0004
775,256	0,00038
775,436	0,0004
775,616	0,00059
775,796	0,00071
775,976	0,00067
776,156	0,00077
776,336	0,00077
776,516	0,00076
776,696	0,00071
776,876	0,00078
777,056	0,00083
777,235	0,00079
777,415	0,00083
777,595	0,00063
777,775	0,00044
777,955	0,00034
778,134	0,00022
778,314	0,00026
778,494	0,00029
778,674	0,00035
778,853	0,00038
779,033	0,00031
779,213	0,00031
779,392	0,00025
779,572	0,0003
779,751	0,00032
779,931	0,00039
780,111	0,00044
780,29	0,00041
780,47	0,00043
780,649	0,00043
780,829	0,00037
781,008	0,00041
781,188	0,00049
781,367	0,00055
781,546	0,00058
781,726	0,00055
781,905	0,00052
782,085	0,00048
782,264	0,00054
782,443	0,0006
782,623	0,00057
782,802	0,00055
782,981	0,00056
783,161	0,00047
783,34	0,00041
783,519	0,00045
783,698	0,00061
783,878	0,00061
784,057	0,00065
784,236	0,00066
784,415	0,00063
784,594	0,0007
784,773	0,00073
784,952	0,00079
785,132	0,00073
785,311	0,00079
785,49	0,00074
785,669	0,00054
785,848	0,00057
786,027	0,00054
786,206	0,00047
786,385	0,00045
786,564	0,00045
786,743	0,0005
786,922	0,00044
787,1	0,00055
787,279	0,00044
787,458	0,00052
787,637	0,0007
787,816	0,0007
787,995	0,00064
788,174	0,00067
788,352	0,00069
788,531	0,00066
788,71	0,00063
788,889	0,00057
789,067	0,00052
789,246	0,00052
789,425	0,00051
789,603	0,00038
789,782	0,00043
789,961	0,00051
790,139	0,00051
790,318	0,00043
790,496	0,00046
790,675	0,00053
790,853	0,00056
791,032	0,00054
791,211	0,00051
791,389	0,00056
791,568	0,00073
791,746	0,0008
791,924	0,00087
792,103	0,0008
792,281	0,00079
792,46	0,00083
792,638	0,00074
792,816	0,00077
792,995	0,00088
793,173	0,00096
793,351	0,00088
793,53	0,00089
793,708	0,0009
793,886	0,00089
794,064	0,00098
794,243	0,00115
794,421	0,00112
794,599	0,00112
794,777	0,00112
794,955	0,00098
795,133	0,00099
795,312	0,00089
795,49	0,00079
795,668	0,00068
795,846	0,00059
796,024	0,00062
796,202	0,0005
796,38	0,00047
796,558	0,0004
796,736	0,00027
796,914	0,00033
797,092	0,0002
797,27	0,00032
797,448	0,00023
797,626	0,00017
797,803	0,00011
797,981	0,00006
798,159	0,00012
798,337	0,00006
798,515	0,00007
798,693	0,00016
798,87	0,0001
799,048	0,0002
799,226	0,00017
799,404	0,00019
799,581	0,0002
799,759	0,00023
799,937	0,00009
800,114	0,00005
800,292	0,00005
800,469	0,00011
800,647	0,00004
800,825	0,00002
801,002	-0,00001
801,18	-0,00014
801,357	0
801,535	-0,00002
801,712	-0,00011
801,89	0,0001
802,067	-0,00001
802,245	-0,00007
802,422	-0,00015
802,6	-0,00018
802,777	-0,00014
802,954	-0,00005
803,132	0,00013
803,309	0,00008
803,486	0,00011
803,664	0,00018
803,841	0,00019
804,018	0,00027
804,195	0,00034
804,373	0,00027
804,55	0,00042
804,727	0,00043
804,904	0,00038
805,081	0,00042
805,259	0,00036
805,436	0,00028
805,613	0,00036
805,79	0,00017
805,967	0,00019
806,144	0,00014
806,321	0,00018
806,498	0,00022
806,675	0,00012
806,852	0,0001
807,029	-0,00004
807,206	0,00003
807,383	0,00018
807,56	0,00026
807,737	0,00037
807,914	0,00032
808,091	0,00041
808,268	0,00055
808,444	0,0005
808,621	0,00062
808,798	0,00056
808,975	0,00062
809,152	0,00047
809,328	0,00041
809,505	0,00031
809,682	0,0002
809,858	0,00018
810,035	0,00016
810,212	-0,00002
810,388	-0
810,565	0,00015
810,742	0,00022
810,918	0,00016
811,095	0,00013
811,271	0,00023
811,448	0,00023
811,625	0,00028
811,801	0,00034
811,978	0,00045
812,154	0,00041
812,33	0,00043
812,507	0,00041
812,683	0,00039
812,86	0,00038
813,036	0,00058
813,212	0,00067
813,389	0,00066
813,565	0,00053
813,741	0,0006
813,918	0,00052
814,094	0,00073
814,27	0,00058
814,447	0,00049
814,623	0,00046
814,799	0,00043
814,975	0,00046
815,151	0,00032
815,328	0,00027
815,504	0,00054
815,68	0,00042
815,856	0,00046
816,032	0,00041
816,208	0,00043
816,384	0,00033
816,56	0,00028
816,736	0,00019
816,912	0,00018
817,088	0,00005
817,264	-0
817,44	-0,00016
817,616	-0,00022
817,792	-0,00032
817,968	-0,00019
818,144	0,00005
818,32	0,00019
818,495	0,00044
818,671	0,00051
818,847	0,00026
819,023	0,00038
819,199	0,00047
819,374	0,00054
819,55	0,00063
819,726	0,00068
819,902	0,00058
820,077	0,00046
820,253	0,00046
820,429	0,00028
820,604	0,00043
820,78	0,00067
820,956	0,00062
821,131	0,00049
821,307	0,00042
821,482	0,00039
821,658	0,0004
821,833	0,0003
822,009	0,00018
822,184	0,00005
822,36	0,00012
822,535	0
822,711	-0,00016
822,886	-0,00009
823,061	0,00007
823,237	0,0001
823,412	0,00022
823,587	0,00021
823,763	0,00025
823,938	0,00032
824,113	0,00035
824,289	0,00024
824,464	0,0004
824,639	0,00053
824,814	0,00046
824,99	0,00028
825,165	0,00029
825,34	0,00029
825,515	0,00027
825,69	0,00032
825,865	0,00037
826,04	0,00043
826,215	0,00063
826,39	0,00076
826,566	0,00082
826,741	0,00098
826,916	0,00114
827,091	0,0011
827,265	0,00107
827,44	0,00111
827,615	0,00105
827,79	0,00096
827,965	0,00102
828,14	0,00098
828,315	0,00088
828,49	0,00081
828,665	0,00087
828,839	0,00065
829,014	0,00078
829,189	0,00053
829,364	0,00057
829,538	0,00072
829,713	0,00076
829,888	0,00064
830,063	0,00061
830,237	0,00044
830,412	0,00048
830,587	0,00039
830,761	0,0006
830,936	0,00043
831,11	0,00073
831,285	0,00049
831,459	0,00041
831,634	0,00035
831,809	0,00054
831,983	0,00042
832,157	0,00047
832,332	0,00031
832,506	0,00027
832,681	0,00025
832,855	0,00032
833,03	0,00008
833,204	0,00026
833,378	0,00008
833,553	-0,00002
833,727	-0,00002
833,901	0,0001
834,076	0,00023
834,25	0,00026
834,424	0,00023
834,598	0,00047
834,773	0,00053
834,947	0,00067
835,121	0,00061
835,295	0,00081
835,469	0,00096
835,643	0,00068
835,817	0,00059
835,991	0,00026
836,166	0,00032
836,34	0,00052
836,514	0,0001
836,688	0,00015
836,862	0,00019
837,036	0,00029
837,21	0,00034
837,384	0,00032
837,557	0,00054
837,731	0,00057
837,905	0,00095
838,079	0,00092
838,253	0,00061
838,427	0,00081
838,601	0,00073
838,774	0,00053
838,948	0,00061
839,122	0,00046
839,296	0,00065
839,469	0,00065
839,643	0,00046
839,817	0,00007
839,991	0,00004
840,164	0,00019
840,338	0,00005
840,512	0,00012
840,685	0,00034
840,859	0,00022
841,032	0,00029
841,206	0,0001
841,379	-0,00003
841,553	0,00019
841,726	0,00055
841,9	0,0006
842,073	0,00067
842,247	0,0008
842,42	0,00063
842,594	0,00068
842,767	0,00064
842,94	0,0006
843,114	0,0008
843,287	0,00084
843,46	0,00071
843,634	0,00048
843,807	0,0006
843,98	0,00051
844,154	0,0005
844,327	0,00041
844,5	0,00028
844,673	0,00028
844,846	0,00027
845,02	0,00001
845,193	0,00001
845,366	0,00005
845,539	0,00003
845,712	-0,00013
845,885	-0,00038
846,058	-0,00052
846,231	-0,00038
846,404	-0,00039
846,577	-0,00038
846,75	-0,00035
846,923	-0,00026
847,096	-0,00015
847,269	-0,00001
847,442	0,0001
847,615	0,00025
847,788	0,00045
847,961	0,00076
848,133	0,001
848,306	0,00121
848,479	0,00134
848,652	0,00135
848,825	0,00139
848,997	0,00125
849,17	0,00111
849,343	0,00106
849,515	0,00088
849,688	0,00092
849,861	0,00082
850,033	0,00064
850,206	0,00054
850,379	0,00033
850,551	0,00011
850,724	-0,00003
850,896	-0,00017
851,069	-0,00007
851,241	-0,00004
851,414	-0,00004
851,586	-0,00004
851,759	0,00003
851,931	0,00016
852,104	0,00002
852,276	0,00006
852,449	0,00027
852,621	0,00044
852,793	0,00059
852,966	0,00053
853,138	0,00071
853,31	0,00091
853,483	0,00102
853,655	0,00083
853,827	0,00044
853,999	0,00048
854,172	0,00061
854,344	0,00059
854,516	0,00052
854,688	0,00058
854,86	0,00052
855,032	0,00041
855,204	0,00043
855,377	0,00028
855,549	0,00038
855,721	0,00066
855,893	0,00072
856,065	0,00063
856,237	0,0005
856,409	0,00045
856,581	0,00043
856,753	0,00077
856,924	0,00076
857,096	0,00051
857,268	0,00073
857,44	0,00064
857,612	0,00073
857,784	0,00071
857,956	0,00077
858,127	0,00083
858,299	0,00082
858,471	0,00081
858,643	0,00052
858,814	0,00035
858,986	0,00053
859,158	0,0004
859,33	0,0005
859,501	0,0003
859,673	0,00033
859,844	0,00046
860,016	0,00044
860,188	0,00048
860,359	0,00052
860,531	0,00045
860,702	0,00061
860,874	0,00028
861,045	0,00022
861,217	0,00014
861,388	0,00035
861,56	0,0003
861,731	0,0002
861,902	0,00042
862,074	0,00045
862,245	0,00059
862,417	0,00083
862,588	0,00071
862,759	0,00085
862,931	0,00087
863,102	0,00102
863,273	0,00093
863,444	0,0009
863,616	0,0011
863,787	0,00107
863,958	0,00098
864,129	0,00081
864,3	0,00072
864,471	0,00063
864,642	0,00079
864,814	0,00057
864,985	0,00045
865,156	0,00023
865,327	-0
865,498	-0,00006
865,669	-0,00027
865,84	-0,00024
866,011	-0,0004
866,182	-0,00046
866,353	-0,00029
866,523	-0,00054
866,694	-0,00031
866,865	-0,00011
867,036	-0,00001
867,207	-0,00003
867,378	-0,00057
867,549	-0,00073
867,719	-0,00078
867,89	-0,00076
868,061	-0,00087
868,232	-0,00089
868,402	-0,00079
868,573	-0,00087
868,744	-0,0011
868,914	-0,00094
869,085	-0,00094
869,256	-0,00051
869,426	-0,00048
869,597	-0,00059
869,767	-0,00042
869,938	-0,00023
870,108	-0,00023
870,279	0,00001
870,449	-0,00021
870,62	-0,00027
870,79	-0,00053
870,961	-0,00007
871,131	-0,00014
871,302	0,00027
871,472	0,00045
871,642	0,00037
871,813	0,00019
871,983	0,00028
872,153	-0,00009
872,324	0,00005
872,494	-0,00002
872,664	-0,00003
872,835	0,00012
873,005	0,00036
873,175	0,00025
873,345	0,00028
873,515	0,00031
873,685	0,00034
873,856	0,00022
874,026	0,00043
874,196	0,00078
874,366	0,00064
874,536	0,00079
874,706	0,00025
874,876	-0,00014
875,046	-0,00045
875,216	-0,00055
875,386	-0,00022
875,556	-0,00009
875,726	-0,00022
875,896	-0,00022
876,066	-0,00042
876,236	-0,00035
876,405	-0,00031
876,575	-0,00029
876,745	-0,00025
876,915	0,0002
877,085	0,00018
877,254	-0,00022
877,424	-0,00008
877,594	0,00022
877,764	0,00023
877,933	0,00033
878,103	0,0006
878,273	0,001
878,442	0,00096
878,612	0,0011
878,781	0,00071
878,951	0,00115
879,121	0,00106
879,29	0,0009
879,46	0,001
879,629	0,00118
879,799	0,00114
879,968	0,00125
880,138	0,00128
880,307	0,00146
880,476	0,00131
880,646	0,00156
880,815	0,00132
880,985	0,00144
881,154	0,00134
881,323	0,00106
881,493	0,00095
881,662	0,0006
881,831	0,00052
882	-0,00004
882,17	0,00013
882,339	0,00026
882,508	0,00042
882,677	0,00054
882,846	0,00075
883,016	0,00078
883,185	0,00082
883,354	0,0006
883,523	0,0007
883,692	0,00064
883,861	0,00067
884,03	0,00016
884,199	0,00018
884,368	0,00034
884,537	-0,00014
884,706	-0,00038
884,875	-0,00039
885,044	-0,00015
885,213	0,00002
885,382	-0,00014
885,55	-0,00017
885,719	-0,00029
885,888	-0,00009
886,057	-0,00028
886,226	-0,00082
886,395	-0,00023
886,563	-0,00011
886,732	-0,00022
886,901	-0,00056
887,069	-0,00046
887,238	-0,00032
887,407	0,00012
887,575	0,00054
887,744	0,00079
887,913	0,0008
888,081	0,00119
888,25	0,00102
888,418	0,00087
888,587	0,00087
888,755	0,00077
888,924	0,00082
889,092	0,001
889,261	0,00006
889,429	-0,0001
889,598	-0,00029
889,766	0,00008
889,935	-0,00017
890,103	-0,00012
890,271	-0,00018
890,44	-0,00009
890,608	-0,00018
890,776	-0,00008
890,944	-0,00014
891,113	0,00057
891,281	0,00039
891,449	0,00049
891,617	-0,00012
891,786	-0,00019
891,954	-0,00052
892,122	-0,00009
892,29	0,00024
892,458	0,00018
892,626	-0,00014
892,794	-0,00013
892,962	-0,00036
893,13	-0,00022
893,298	-0,0003
893,466	0,00026
