Data from Chemiepractica_Absorbance__15__11-35-33-144.txt Node

Date: Mon Dec 09 11:35:33 CET 2024
User: r0948668
Spectrometer: USB4F07138
Trigger mode: 4
Integration Time (sec): 6,000000E-3
Scans to average: 20
Electric dark correction enabled: true
Nonlinearity correction enabled: false
Boxcar width: 5
XAxis mode: Wavelengths
Number of Pixels in Spectrum: 3648
>>>>>Begin Spectral Data<<<<<
176,779	-0,50671
176,999	-1,31289
177,218	-0,51401
177,438	-0
177,658	-0
177,878	-0
178,097	0,91504
178,317	0,66027
178,537	0,4885
178,757	0,17559
178,976	0,20604
179,196	-0
179,416	-0,15454
179,635	-0,03169
179,855	-0,02129
180,075	-0,07211
180,294	-0,05378
180,514	-0,07462
180,734	-0,01787
180,953	0,00126
181,173	0,00718
181,392	0,00809
181,612	0,00149
181,832	0,02161
182,051	0,02586
182,271	0,0223
182,49	0,01769
182,71	0,01498
182,929	0,03032
183,149	0,0127
183,368	0,01152
183,588	0,0118
183,807	0,01923
184,027	0,02314
184,246	0,0092
184,466	0,00304
184,685	0,01565
184,905	0,01167
185,124	0,01328
185,344	0,00736
185,563	0,01293
185,782	0,01231
186,002	0,01014
186,221	-0,00426
186,44	-0,00414
186,66	-0,00766
186,879	0,0093
187,099	-0,00176
187,318	0,00244
187,537	-0,00536
187,756	0,00328
187,976	-0,00422
188,195	-0,0218
188,414	-0,02406
188,634	-0,00361
188,853	-0,00196
189,072	-0,0034
189,291	-0,02371
189,511	-0,01413
189,73	-0,00813
189,949	0,00266
190,168	-0,00699
190,387	0,01213
190,607	0,01564
190,826	0,00988
191,045	-0,00486
191,264	-0,00825
191,483	-0,01771
191,702	-0,00451
191,921	-0,01406
192,141	-0,00287
192,36	-0,01311
192,579	-0,00992
192,798	-0,01613
193,017	-0,01449
193,236	0,00155
193,455	0,00408
193,674	0,01397
193,893	0,01666
194,112	0,02113
194,331	0,02083
194,55	0,00857
194,769	0,01227
194,988	0,01126
195,207	0,01023
195,426	0,01283
195,645	0,00581
195,864	0,00948
196,083	0,00705
196,302	0,01176
196,521	0,00941
196,739	0,00804
196,958	0,01571
197,177	0,01371
197,396	0,02443
197,615	0,02503
197,834	0,02358
198,053	0,01225
198,271	-0,0019
198,49	0,00223
198,709	0,00903
198,928	0,01153
199,147	0,0158
199,365	0,017
199,584	0,02935
199,803	0,01
200,022	0,01088
200,24	0,01167
200,459	0,02046
200,678	0,03324
200,897	0,02553
201,115	0,01992
201,334	0,02044
201,553	0,00777
201,771	0,00265
201,99	-0,01212
202,209	-0,00325
202,427	-0,01181
202,646	-0,01621
202,864	-0,0176
203,083	-0,026
203,302	-0,01676
203,52	0,00098
203,739	-0,004
203,957	0,01862
204,176	0,01667
204,394	0,02241
204,613	0,03559
204,831	0,04761
205,05	0,05248
205,268	0,05765
205,487	0,05575
205,705	0,04154
205,924	0,03658
206,142	0,04273
206,361	0,0293
206,579	0,03711
206,798	0,02908
207,016	0,01605
207,234	0,00756
207,453	0,01301
207,671	0,02128
207,89	0,03124
208,108	0,03445
208,326	0,01306
208,545	0,00382
208,763	0,00221
208,981	-0,01617
209,2	-0,02744
209,418	-0,03306
209,636	-0,0381
209,855	-0,04161
210,073	-0,05374
210,291	-0,06516
210,509	-0,06193
210,728	-0,05753
210,946	-0,05364
211,164	-0,03959
211,382	-0,02308
211,6	0,00386
211,819	0,00071
212,037	0,00913
212,255	0,00581
212,473	-0,00182
212,691	0,00612
212,909	0,01466
213,128	0,01828
213,346	0,01637
213,564	0,01307
213,782	0,00439
214	0,0084
214,218	0,02394
214,436	0,02119
214,654	0,01172
214,872	0,0178
215,09	-0,00092
215,308	0,00077
215,526	0,0076
215,744	-0,00545
215,962	-0,011
216,18	-0,01581
216,398	-0,01719
216,616	-0,02873
216,834	-0,02933
217,052	-0,01565
217,27	-0,0271
217,488	-0,01923
217,706	-0,01869
217,924	-0,02743
218,142	-0,01713
218,36	-0,00436
218,578	0,00049
218,795	-0,01458
219,013	-0,01224
219,231	-0,02058
219,449	-0,0234
219,667	-0,02237
219,885	-0,01009
220,102	-0,01071
220,32	-0,00019
220,538	0,01127
220,756	0,00305
220,973	0,02039
221,191	0,01948
221,409	0,01814
221,627	0,02419
221,844	0,02006
222,062	0,03047
222,28	0,02362
222,497	0,01881
222,715	0,01718
222,933	0,00319
223,15	-0,00262
223,368	-0,0172
223,586	-0,00024
223,803	0,00589
224,021	-0,00094
224,239	-0,00673
224,456	-0,00888
224,674	-0,01294
224,891	-0,01709
225,109	-0,01876
225,326	-0,01412
225,544	-0,00831
225,762	-0,01907
225,979	-0,02061
226,197	-0,0242
226,414	-0,02322
226,632	-0,01489
226,849	-0,02037
227,066	-0,01284
227,284	-0,01334
227,501	-0,00728
227,719	-0,00614
227,936	-0,01008
228,154	0,00768
228,371	-0,00733
228,588	-0,00017
228,806	0,00828
229,023	0,00732
229,241	0,01891
229,458	0,02429
229,675	0,02796
229,893	0,0163
230,11	0,01458
230,327	0,01782
230,545	0,01636
230,762	0,0171
230,979	0,02777
231,196	0,02847
231,414	0,0295
231,631	0,01695
231,848	0,00395
232,065	-0,00067
232,283	-0,00288
232,5	-0,00879
232,717	-0,01386
232,934	-0,02866
233,151	-0,01588
233,368	-0,0305
233,586	-0,0369
233,803	-0,03172
234,02	-0,02105
234,237	-0,01476
234,454	-0,00432
234,671	0,01454
234,888	0,01786
235,105	0,02128
235,322	0,04113
235,54	0,02975
235,757	0,03902
235,974	0,04556
236,191	0,03927
236,408	0,04384
236,625	0,04694
236,842	0,04213
237,059	0,03005
237,276	0,03141
237,493	0,03122
237,71	0,02345
237,926	0,02501
238,143	0,01162
238,36	0,00227
238,577	-0,00665
238,794	-0,01773
239,011	-0,03046
239,228	-0,02918
239,445	-0,03631
239,662	-0,02115
239,878	-0,02019
240,095	-0,02494
240,312	-0,01751
240,529	-0,01538
240,746	-0,01121
240,963	-0,00065
241,179	0,00104
241,396	0,0195
241,613	0,01458
241,83	0,02256
242,046	0,01649
242,263	0,01161
242,48	0,01902
242,697	0,01687
242,913	0,02156
243,13	0,01694
243,347	0,01505
243,563	0,01795
243,78	0,01712
243,997	0,02539
244,213	0,02488
244,43	0,03094
244,646	0,02768
244,863	0,02905
245,08	0,02828
245,296	0,02341
245,513	0,02454
245,729	0,03053
245,946	0,02777
246,162	0,01561
246,379	0,00755
246,595	0,00632
246,812	-0,00529
247,028	0,01307
247,245	0,01044
247,461	-0,00126
247,678	0,00168
247,894	0,00201
248,111	-0,00547
248,327	0,00023
248,544	0,00237
248,76	0,00351
248,976	0,00284
249,193	-0,0067
249,409	-0,01007
249,626	-0,00955
249,842	0,00097
250,058	-0,00475
250,275	0,00007
250,491	0,00299
250,707	0,0025
250,924	0,007
251,14	0,00817
251,356	0,01071
251,572	0,02124
251,789	0,01915
252,005	0,01429
252,221	0,01292
252,437	0,00869
252,654	0,00122
252,87	-0,00874
253,086	0,00469
253,302	0,00095
253,518	0,00245
253,735	-0,00229
253,951	-0,00179
254,167	-0,00545
254,383	-0,02155
254,599	-0,02659
254,815	-0,01888
255,031	-0,02912
255,247	-0,03454
255,463	-0,04881
255,68	-0,04307
255,896	-0,04314
256,112	-0,04895
256,328	-0,05314
256,544	-0,05643
256,76	-0,03436
256,976	-0,02347
257,192	-0,01611
257,408	0,00173
257,624	0,01611
257,84	0,01668
258,056	0,00531
258,272	0,00847
258,487	0,01694
258,703	0,02117
258,919	0,02627
259,135	0,03285
259,351	0,02827
259,567	0,02218
259,783	0,01559
259,999	0,01773
260,215	0,0218
260,43	0,02294
260,646	0,02692
260,862	0,03428
261,078	0,03087
261,294	0,02128
261,509	0,01402
261,725	0,00739
261,941	0,00898
262,157	0,02161
262,372	0,01588
262,588	0,00633
262,804	0,01886
263,019	0,01124
263,235	0,00678
263,451	0,01153
263,667	0,01853
263,882	0,01774
264,098	0,03005
264,313	0,03395
264,529	0,01886
264,745	0,02144
264,96	0,02657
265,176	0,02243
265,391	0,02133
265,607	0,02433
265,823	0,02302
266,038	0,01799
266,254	0,02083
266,469	0,01996
266,685	0,00788
266,9	0,01374
267,116	0,0171
267,331	0,02844
267,547	0,02733
267,762	0,02095
267,978	0,01255
268,193	0,01619
268,408	0,01938
268,624	0,01624
268,839	0,01123
269,055	0,01553
269,27	0,01208
269,485	0,0078
269,701	-0,00093
269,916	-0,00363
270,132	0,01549
270,347	0,01955
270,562	0,01783
270,777	0,01806
270,993	0,01759
271,208	0,01063
271,423	0,01341
271,639	0,02573
271,854	0,01894
272,069	0,01895
272,284	0,02119
272,5	0,00759
272,715	0,00663
272,93	-0,00177
273,145	-0,00918
273,36	-0,00696
273,576	0,01211
273,791	0,00564
274,006	-0,005
274,221	0,00021
274,436	-0,00888
274,651	-0,0095
274,866	-0,00574
275,081	0,00993
275,296	0,01167
275,512	0,01889
275,727	0,02414
275,942	0,01984
276,157	0,02182
276,372	0,03602
276,587	0,04415
276,802	0,05864
277,017	0,05823
277,232	0,06659
277,447	0,05392
277,662	0,05186
277,877	0,04709
278,092	0,03802
278,306	0,03814
278,521	0,0416
278,736	0,03438
278,951	0,0256
279,166	0,01181
279,381	0,00565
279,596	-0,00761
279,811	-0,01884
280,025	-0,01311
280,24	-0,01273
280,455	-0,01024
280,67	-0,02141
280,885	-0,01922
281,099	-0,02926
281,314	-0,03228
281,529	-0,02612
281,744	-0,0064
281,959	-0,00309
282,173	0,00836
282,388	0,00765
282,603	0,00919
282,817	0,01608
283,032	0,01968
283,247	0,01019
283,461	0,008
283,676	0,01275
283,891	0,01017
284,105	0,00731
284,32	0,00952
284,535	0,01065
284,749	0,01529
284,964	0,02632
285,178	0,01372
285,393	0,01797
285,607	0,02429
285,822	0,03313
286,036	0,03254
286,251	0,03589
286,465	0,03616
286,68	0,03449
286,894	0,02857
287,109	0,01951
287,323	0,00467
287,538	0,01318
287,752	0,00619
287,967	0,0101
288,181	0,00667
288,396	0,01202
288,61	0,01774
288,824	0,01854
289,039	0,01747
289,253	0,01997
289,467	0,02288
289,682	0,02886
289,896	0,03394
290,11	0,03831
290,325	0,03802
290,539	0,03704
290,753	0,0315
290,968	0,02444
291,182	0,01202
291,396	0,01044
291,61	0,00943
291,825	0,01294
292,039	0,01813
292,253	0,00457
292,467	0,00499
292,681	-0,00092
292,896	0,00162
293,11	-0,00416
293,324	0,00214
293,538	0,00876
293,752	0,01846
293,966	0,02038
294,18	0,01834
294,394	0,00887
294,608	0,02103
294,823	0,01143
295,037	0,01924
295,251	0,01992
295,465	0,02937
295,679	0,024
295,893	0,02128
296,107	0,01267
296,321	0,02094
296,535	0,02143
296,749	0,02798
296,963	0,01463
297,177	0,02142
297,391	0,01443
297,604	0,01148
297,818	0,00608
298,032	-0,00007
298,246	-0,01161
298,46	-0,00865
298,674	-0,01387
298,888	-0,01097
299,102	-0,00542
299,315	-0,00161
299,529	0,00356
299,743	0,0079
299,957	0,00725
300,171	0,0061
300,385	0,01663
300,598	0,02697
300,812	0,02831
301,026	0,02986
301,24	0,02717
301,453	0,0226
301,667	0,01963
301,881	0,02129
302,094	0,01103
302,308	0,01381
302,522	0,02571
302,735	0,02055
302,949	0,01805
303,163	0,01499
303,376	0,00865
303,59	0,01333
303,803	0,00455
304,017	0,01018
304,231	0,00085
304,444	0,01245
304,658	0,01809
304,871	0,01461
305,085	0,01268
305,298	0,01121
305,512	0,00826
305,725	0,01012
305,939	0,00521
306,152	-0,00014
306,366	-0,0132
306,579	-0,00071
306,793	0,00181
307,006	-0,00088
307,22	-0,00635
307,433	-0,00331
307,646	-0,00747
307,86	-0,00309
308,073	-0,00366
308,286	-0,00623
308,5	0,00536
308,713	0,01116
308,926	0,00445
309,14	-0,00259
309,353	-0,01339
309,566	-0,01231
309,78	-0,0163
309,993	-0,00428
310,206	-0,00285
310,419	-0,00018
310,633	-0,00228
310,846	-0,00057
311,059	0,00748
311,272	0,0077
311,486	0,00827
311,699	0,00985
311,912	0,01364
312,125	0,01234
312,338	0,00392
312,551	0,00225
312,764	0,00417
312,978	0,0197
313,191	0,02161
313,404	0,01309
313,617	0,01097
313,83	0,01448
314,043	0,02044
314,256	0,01256
314,469	0,0159
314,682	0,01409
314,895	0,01834
315,108	0,01838
315,321	0,00245
315,534	0,00412
315,747	0,01229
315,96	0,01872
316,173	0,01112
316,386	0,01529
316,599	0,01887
316,812	0,02044
317,025	0,02576
317,237	0,02304
317,45	0,02145
317,663	0,03042
317,876	0,0242
318,089	0,03177
318,302	0,0218
318,515	0,01903
318,727	0,01243
318,94	0,01208
319,153	0,00717
319,366	0,0029
319,578	0,00056
319,791	0,0056
320,004	-0,00029
320,217	0,00413
320,429	0,00373
320,642	0,01133
320,855	0,0119
321,067	0,00639
321,28	0,00858
321,493	0,0141
321,705	0,0152
321,918	0,01422
322,131	0,01486
322,343	0,02316
322,556	0,02643
322,768	0,01744
322,981	0,01668
323,194	0,01696
323,406	0,02408
323,619	0,02291
323,831	0,03324
324,044	0,0431
324,256	0,05099
324,469	0,04869
324,681	0,04244
324,894	0,03736
325,106	0,03709
325,319	0,03119
325,531	0,0395
325,743	0,03261
325,956	0,03336
326,168	0,01465
326,381	0,01097
326,593	0,0005
326,805	-0,00085
327,018	-0,0038
327,23	-0,01698
327,442	-0,01504
327,655	-0,02141
327,867	-0,02352
328,079	-0,01729
328,292	-0,0167
328,504	-0,0068
328,716	-0,00981
328,928	-0,00046
329,141	-0,00522
329,353	-0,00557
329,565	0,00444
329,777	0,00351
329,99	0,00949
330,202	0,01019
330,414	0,0054
330,626	0,00283
330,838	0,00728
331,05	0,0024
331,263	-0,00036
331,475	0,00663
331,687	0,00544
331,899	0,01091
332,111	0,01654
332,323	0,02492
332,535	0,02364
332,747	0,03047
332,959	0,02923
333,171	0,02441
333,383	0,02919
333,595	0,02216
333,807	0,01681
334,019	0,01422
334,231	0,00642
334,443	0,0023
334,655	-0,00468
334,867	-0,00121
335,079	0,00508
335,291	-0,00129
335,503	0,00535
335,714	0,00109
335,926	0,00979
336,138	0,00646
336,35	0,01311
336,562	0,02216
336,774	0,01685
336,986	0,01717
337,197	0,01169
337,409	-0,00052
337,621	0,00407
337,833	-0,00436
338,044	0,00139
338,256	-0,00913
338,468	-0,00064
338,68	-0,00401
338,891	-0,01757
339,103	-0,02198
339,315	-0,02893
339,526	-0,02857
339,738	-0,02836
339,95	-0,02945
340,161	-0,01815
340,373	-0,025
340,585	-0,02436
340,796	-0,02778
341,008	-0,02731
341,219	-0,01686
341,431	-0,00876
341,642	0,00204
341,854	0,00164
342,065	0,00173
342,277	-0,00147
342,489	-0,00825
342,7	0,00087
342,912	0,00609
343,123	0,0089
343,334	0,01714
343,546	0,01421
343,757	0,01841
343,969	0,01541
344,18	0,01509
344,392	0,01705
344,603	0,02784
344,814	0,02684
345,026	0,02657
345,237	0,02361
345,448	0,0245
345,66	0,01605
345,871	0,01806
346,082	0,01191
346,294	0,00981
346,505	0,00953
346,716	0,01606
346,927	0,01074
347,139	0,01928
347,35	0,01605
347,561	0,01691
347,772	0,01318
347,984	0,01486
348,195	0,01836
348,406	0,01534
348,617	0,01925
348,828	0,02859
349,039	0,02288
349,251	0,0227
349,462	0,01262
349,673	0,01069
349,884	0,00476
350,095	0,0032
350,306	0,00445
350,517	0,009
350,728	0,00989
350,939	0,00719
351,15	0,00233
351,361	0,00779
351,572	0,01416
351,783	0,01955
351,994	0,01902
352,205	0,02426
352,416	0,02522
352,627	0,0244
352,838	0,01627
353,049	0,02382
353,26	0,02833
353,471	0,01733
353,682	0,01149
353,893	0,00704
354,103	0,00374
354,314	0,00613
354,525	0,01032
354,736	0,01561
354,947	0,01849
355,157	0,01798
355,368	0,01379
355,579	0,00688
355,79	0,01554
356,001	0,01434
356,211	0,01863
356,422	0,01034
356,633	0,00947
356,843	0,00675
357,054	0,00051
357,265	-0,00072
357,476	-0,00298
357,686	-0,00581
357,897	0,00105
358,107	-0,00377
358,318	-0,00041
358,529	-0,00059
358,739	0,01456
358,95	0,01374
359,16	0,01558
359,371	0,0108
359,582	0,0089
359,792	0,01221
360,003	0,01579
360,213	0,00968
360,424	0,01152
360,634	0,01524
360,845	0,01221
361,055	0,00441
361,266	0,00547
361,476	0,01199
361,686	0,01868
361,897	0,02295
362,107	0,02437
362,318	0,01858
362,528	0,02342
362,738	0,01815
362,949	0,01522
363,159	0,01794
363,369	0,01811
363,58	0,01509
363,79	0,00507
364	0,00476
364,211	-0,00309
364,421	-0,00733
364,631	0,00103
364,842	-0,00177
365,052	0,00259
365,262	0,00041
365,472	-0,00232
365,682	-0,00247
365,893	0,00504
366,103	0,01019
366,313	0,0096
366,523	0,01665
366,733	0,01761
366,943	0,01853
367,154	0,02064
367,364	0,02691
367,574	0,03024
367,784	0,03201
367,994	0,03468
368,204	0,03518
368,414	0,02864
368,624	0,02846
368,834	0,02734
369,044	0,03218
369,254	0,03096
369,464	0,02815
369,674	0,029
369,884	0,02236
370,094	0,01988
370,304	0,01123
370,514	0,00498
370,724	0,00672
370,934	0,00411
371,144	-0,00006
371,353	-0,004
371,563	-0,00583
371,773	-0,00621
371,983	-0,00831
372,193	-0,00517
372,403	-0,00404
372,612	0,00119
372,822	0,00456
373,032	0,00778
373,242	0,00797
373,452	0,00839
373,661	0,00879
373,871	0,00903
374,081	0,01284
374,29	0,01184
374,5	0,00777
374,71	0,00314
374,92	-0,00009
375,129	0,00132
375,339	0,00383
375,549	0,00011
375,758	0,0036
375,968	-0,00031
376,177	-0,00276
376,387	-0,00905
376,597	-0,00977
376,806	-0,00104
377,016	-0,00025
377,225	-0,00064
377,435	-0,00539
377,644	-0,00777
377,854	-0,00158
378,063	-0,00014
378,273	0,00324
378,482	0,00145
378,692	0,00691
378,901	0,00538
379,111	0,00427
379,32	0,00784
379,529	0,01234
379,739	0,0169
379,948	0,01591
380,158	0,01953
380,367	0,02119
380,576	0,02074
380,786	0,01989
380,995	0,02336
381,204	0,03108
381,414	0,03078
381,623	0,0326
381,832	0,03293
382,041	0,03102
382,251	0,03178
382,46	0,02699
382,669	0,01948
382,878	0,02401
383,088	0,02173
383,297	0,01638
383,506	0,0129
383,715	0,00969
383,924	0,00481
384,133	0,00314
384,342	0,00557
384,552	0,00662
384,761	0,00987
384,97	0,01609
385,179	0,0145
385,388	0,01893
385,597	0,0189
385,806	0,02004
386,015	0,02115
386,224	0,02604
386,433	0,02624
386,642	0,0217
386,851	0,02133
387,06	0,0197
387,269	0,01923
387,478	0,02063
387,687	0,024
387,896	0,02641
388,105	0,02165
388,314	0,01993
388,523	0,01621
388,731	0,01627
388,94	0,01735
389,149	0,01496
389,358	0,01691
389,567	0,01576
389,776	0,01456
389,984	0,01274
390,193	0,0128
390,402	0,01288
390,611	0,01235
390,819	0,01149
391,028	0,01201
391,237	0,0146
391,446	0,01483
391,654	0,01334
391,863	0,01268
392,072	0,01325
392,28	0,01224
392,489	0,011
392,698	0,01074
392,906	0,01341
393,115	0,01594
393,324	0,01693
393,532	0,01382
393,741	0,01473
393,949	0,01171
394,158	0,01128
394,366	0,00829
394,575	0,00666
394,783	0,00617
394,992	0,00827
395,2	0,00535
395,409	0,00412
395,617	0,00237
395,826	0,00559
396,034	0,00321
396,243	0,00504
396,451	0,00542
396,66	0,01066
396,868	0,01284
397,076	0,01267
397,285	0,00936
397,493	0,00964
397,701	0,01124
397,91	0,00956
398,118	0,00711
398,326	0,00997
398,535	0,00772
398,743	0,00798
398,951	0,00476
399,159	0,00769
399,368	0,00876
399,576	0,01181
399,784	0,01391
399,992	0,0133
400,201	0,01394
400,409	0,01255
400,617	0,01144
400,825	0,01606
401,033	0,01524
401,241	0,01485
401,45	0,01184
401,658	0,01188
401,866	0,01363
402,074	0,0124
402,282	0,01273
402,49	0,01168
402,698	0,01273
402,906	0,01058
403,114	0,00892
403,322	0,01009
403,53	0,01068
403,738	0,01031
403,946	0,00919
404,154	0,00473
404,362	0,00472
404,57	0,0039
404,778	0,00527
404,986	0,00609
405,194	0,00698
405,402	0,00808
405,609	0,00678
405,817	0,00495
406,025	0,00724
406,233	0,00905
406,441	0,01152
406,649	0,01061
406,856	0,01037
407,064	0,00966
407,272	0,00851
407,48	0,00926
407,687	0,00704
407,895	0,00885
408,103	0,00983
408,311	0,00845
408,518	0,00606
408,726	0,00594
408,934	0,00773
409,141	0,00699
409,349	0,00568
409,557	0,00701
409,764	0,00812
409,972	0,00919
410,18	0,00695
410,387	0,00787
410,595	0,00683
410,802	0,00641
411,01	0,00711
411,217	0,00787
411,425	0,00869
411,632	0,01136
411,84	0,01036
412,047	0,00852
412,255	0,00692
412,462	0,00855
412,67	0,00804
412,877	0,01035
413,085	0,01268
413,292	0,01218
413,499	0,01175
413,707	0,01195
413,914	0,01196
414,122	0,01123
414,329	0,01205
414,536	0,01295
414,744	0,01347
414,951	0,014
415,158	0,01292
415,366	0,01096
415,573	0,01184
415,78	0,01277
415,987	0,01193
416,195	0,01074
416,402	0,00998
416,609	0,01083
416,816	0,01109
417,023	0,01129
417,231	0,0107
417,438	0,00914
417,645	0,00931
417,852	0,00644
418,059	0,00496
418,266	0,00432
418,473	0,00447
418,68	0,00804
418,888	0,00702
419,095	0,00791
419,302	0,00665
419,509	0,00587
419,716	0,00755
419,923	0,00797
420,13	0,00885
420,337	0,01106
420,544	0,01206
420,751	0,01247
420,958	0,01077
421,165	0,01171
421,371	0,0102
421,578	0,01082
421,785	0,0109
421,992	0,01064
422,199	0,01103
422,406	0,01331
422,613	0,01062
422,82	0,0106
423,026	0,01114
423,233	0,01087
423,44	0,00883
423,647	0,00945
423,854	0,00818
424,06	0,00807
424,267	0,00724
424,474	0,00656
424,681	0,00521
424,887	0,00522
425,094	0,0054
425,301	0,00602
425,507	0,00625
425,714	0,0076
425,921	0,00665
426,127	0,00676
426,334	0,00628
426,54	0,00723
426,747	0,00776
426,954	0,00575
427,16	0,00559
427,367	0,005
427,573	0,00408
427,78	0,00385
427,986	0,00451
428,193	0,00454
428,399	0,00508
428,606	0,00563
428,812	0,00546
429,019	0,00443
429,225	0,00655
429,432	0,00812
429,638	0,00827
429,845	0,00701
430,051	0,00778
430,257	0,00637
430,464	0,00694
430,67	0,00692
430,876	0,00709
431,083	0,00779
431,289	0,00881
431,495	0,00877
431,702	0,00681
431,908	0,00517
432,114	0,00526
432,32	0,00487
432,527	0,0056
432,733	0,00529
432,939	0,00545
433,145	0,0047
433,351	0,00392
433,558	0,00514
433,764	0,00558
433,97	0,00554
434,176	0,00689
434,382	0,00855
434,588	0,00874
434,794	0,00751
435,001	0,00812
435,207	0,00757
435,413	0,00826
435,619	0,00832
435,825	0,00675
436,031	0,00586
436,237	0,00745
436,443	0,00879
436,649	0,00813
436,855	0,00797
437,061	0,00952
437,267	0,00926
437,473	0,00934
437,679	0,00997
437,884	0,0098
438,09	0,00986
438,296	0,00912
438,502	0,00788
438,708	0,00716
438,914	0,00752
439,12	0,00703
439,325	0,00628
439,531	0,00718
439,737	0,00657
439,943	0,0058
440,149	0,00565
440,354	0,0057
440,56	0,00608
440,766	0,00551
440,972	0,00585
441,177	0,00563
441,383	0,00545
441,589	0,0059
441,794	0,00555
442	0,00689
442,206	0,00699
442,411	0,00728
442,617	0,00763
442,822	0,00846
443,028	0,00874
443,234	0,00928
443,439	0,00913
443,645	0,00959
443,85	0,01033
444,056	0,0098
444,261	0,00977
444,467	0,01023
444,672	0,00992
444,878	0,01017
445,083	0,01009
445,289	0,00988
445,494	0,00927
445,699	0,00908
445,905	0,00967
446,11	0,0094
446,316	0,00946
446,521	0,0088
446,726	0,00908
446,932	0,00908
447,137	0,00897
447,342	0,00835
447,548	0,00877
447,753	0,00899
447,958	0,0091
448,164	0,00807
448,369	0,00747
448,574	0,00685
448,779	0,00722
448,984	0,00636
449,19	0,00684
449,395	0,0064
449,6	0,00678
449,805	0,00761
450,01	0,00707
450,215	0,00656
450,421	0,00776
450,626	0,008
450,831	0,00851
451,036	0,00772
451,241	0,00861
451,446	0,00797
451,651	0,00836
451,856	0,00822
452,061	0,00741
452,266	0,00798
452,471	0,00886
452,676	0,00834
452,881	0,00865
453,086	0,00904
453,291	0,01009
453,496	0,00964
453,701	0,01004
453,906	0,00967
454,111	0,0091
454,316	0,00971
454,52	0,00964
454,725	0,00892
454,93	0,00903
455,135	0,00884
455,34	0,00834
455,545	0,00872
455,749	0,00887
455,954	0,00876
456,159	0,00861
456,364	0,01025
456,568	0,0105
456,773	0,01047
456,978	0,01122
457,182	0,01194
457,387	0,01177
457,592	0,01205
457,796	0,01114
458,001	0,01167
458,206	0,01188
458,41	0,01262
458,615	0,01111
458,82	0,01093
459,024	0,0114
459,229	0,01102
459,433	0,01055
459,638	0,01017
459,842	0,01068
460,047	0,01049
460,251	0,00953
460,456	0,00943
460,66	0,00979
460,865	0,01066
461,069	0,01052
461,274	0,01074
461,478	0,01126
461,682	0,01102
461,887	0,01202
462,091	0,01198
462,296	0,01313
462,5	0,01403
462,704	0,01445
462,909	0,01378
463,113	0,01298
463,317	0,01253
463,522	0,0124
463,726	0,01262
463,93	0,01261
464,134	0,01272
464,339	0,013
464,543	0,01253
464,747	0,01203
464,951	0,01238
465,155	0,01256
465,36	0,01374
465,564	0,0142
465,768	0,0137
465,972	0,01392
466,176	0,0137
466,38	0,0139
466,584	0,01366
466,788	0,01359
466,993	0,01398
467,197	0,01365
467,401	0,01388
467,605	0,01304
467,809	0,01375
468,013	0,01421
468,217	0,0137
468,421	0,01428
468,625	0,0138
468,829	0,01384
469,033	0,01378
469,236	0,0146
469,44	0,01414
469,644	0,01413
469,848	0,01456
470,052	0,01481
470,256	0,01409
470,46	0,01437
470,664	0,01451
470,867	0,01479
471,071	0,01483
471,275	0,01524
471,479	0,01468
471,683	0,01518
471,886	0,01538
472,09	0,01581
472,294	0,01556
472,497	0,01597
472,701	0,01592
472,905	0,01563
473,109	0,01582
473,312	0,01604
473,516	0,01615
473,719	0,01629
473,923	0,01658
474,127	0,01661
474,33	0,01612
474,534	0,01618
474,737	0,01668
474,941	0,01657
475,145	0,01667
475,348	0,01663
475,552	0,01658
475,755	0,01669
475,959	0,01692
476,162	0,01725
476,366	0,01723
476,569	0,01755
476,772	0,01758
476,976	0,0177
477,179	0,01828
477,383	0,01813
477,586	0,01816
477,789	0,01805
477,993	0,01834
478,196	0,01816
478,399	0,01787
478,603	0,01814
478,806	0,01831
479,009	0,01823
479,213	0,01811
479,416	0,01806
479,619	0,01899
479,822	0,0193
480,026	0,01984
480,229	0,01962
480,432	0,01997
480,635	0,02017
480,838	0,02027
481,041	0,01994
481,245	0,0202
481,448	0,02
481,651	0,02026
481,854	0,01996
482,057	0,01972
482,26	0,01991
482,463	0,02018
482,666	0,02026
482,869	0,02027
483,072	0,02032
483,275	0,02056
483,478	0,02061
483,681	0,0214
483,884	0,02125
484,087	0,02129
484,29	0,02163
484,493	0,02149
484,696	0,02155
484,899	0,02178
485,102	0,02186
485,305	0,0219
485,508	0,02242
485,71	0,02269
485,913	0,02249
486,116	0,02262
486,319	0,02288
486,522	0,02319
486,725	0,02343
486,927	0,02377
487,13	0,02386
487,333	0,02416
487,536	0,02444
487,738	0,02441
487,941	0,02431
488,144	0,02466
488,346	0,02496
488,549	0,02491
488,752	0,0251
488,954	0,02549
489,157	0,0252
489,359	0,02519
489,562	0,02515
489,765	0,02522
489,967	0,02542
490,17	0,02608
490,372	0,0261
490,575	0,02616
490,777	0,02668
490,98	0,02662
491,182	0,02641
491,385	0,02679
491,587	0,02707
491,79	0,02755
491,992	0,02769
492,195	0,02799
492,397	0,02798
492,599	0,02806
492,802	0,02822
493,004	0,02842
493,207	0,02857
493,409	0,02907
493,611	0,02923
493,814	0,02946
494,016	0,02928
494,218	0,02954
494,42	0,02966
494,623	0,02971
494,825	0,03004
495,027	0,03012
495,229	0,02989
495,432	0,03001
495,634	0,03002
495,836	0,03033
496,038	0,03051
496,24	0,03071
496,442	0,03076
496,645	0,03082
496,847	0,03109
497,049	0,03108
497,251	0,03133
497,453	0,03181
497,655	0,03217
497,857	0,03261
498,059	0,03278
498,261	0,03281
498,463	0,03338
498,665	0,03387
498,867	0,03402
499,069	0,03426
499,271	0,03429
499,473	0,03458
499,675	0,03483
499,877	0,03482
500,079	0,03491
500,281	0,03504
500,482	0,03546
500,684	0,03552
500,886	0,03551
501,088	0,0358
501,29	0,03609
501,492	0,03667
501,693	0,03707
501,895	0,03744
502,097	0,03778
502,299	0,03796
502,5	0,03822
502,702	0,0382
502,904	0,03854
503,106	0,03908
503,307	0,03941
503,509	0,03964
503,711	0,03978
503,912	0,04005
504,114	0,04
504,315	0,04018
504,517	0,04034
504,719	0,04079
504,92	0,04108
505,122	0,04127
505,323	0,04121
505,525	0,0412
505,726	0,04128
505,928	0,04168
506,129	0,04193
506,331	0,04216
506,532	0,0427
506,734	0,0429
506,935	0,043
507,137	0,04319
507,338	0,04326
507,539	0,04339
507,741	0,04397
507,942	0,04432
508,143	0,04447
508,345	0,04467
508,546	0,04501
508,747	0,0452
508,949	0,04549
509,15	0,04551
509,351	0,04587
509,553	0,04589
509,754	0,04638
509,955	0,04636
510,156	0,04663
510,357	0,04686
510,559	0,04698
510,76	0,04716
510,961	0,04746
511,162	0,04775
511,363	0,04808
511,564	0,04832
511,766	0,04885
511,967	0,04918
512,168	0,04952
512,369	0,0499
512,57	0,05031
512,771	0,05082
512,972	0,05103
513,173	0,05125
513,374	0,05149
513,575	0,05189
513,776	0,05225
513,977	0,05231
514,178	0,0526
514,379	0,05305
514,58	0,05326
514,781	0,05356
514,981	0,05388
515,182	0,05411
515,383	0,05445
515,584	0,05472
515,785	0,05503
515,986	0,05535
516,187	0,05581
516,387	0,05584
516,588	0,05617
516,789	0,05639
516,99	0,05669
517,19	0,05682
517,391	0,0574
517,592	0,05767
517,793	0,0581
517,993	0,05853
518,194	0,05877
518,395	0,05897
518,595	0,05944
518,796	0,05961
518,996	0,05985
519,197	0,06013
519,398	0,0605
519,598	0,06072
519,799	0,06098
519,999	0,06121
520,2	0,06161
520,4	0,06172
520,601	0,06239
520,801	0,06269
521,002	0,0631
521,202	0,06349
521,403	0,06383
521,603	0,06398
521,804	0,06418
522,004	0,0644
522,204	0,06471
522,405	0,06479
522,605	0,06508
522,806	0,06523
523,006	0,06554
523,206	0,06582
523,407	0,06628
523,607	0,0665
523,807	0,06691
524,007	0,06716
524,208	0,0676
524,408	0,06791
524,608	0,06827
524,808	0,06878
525,009	0,0692
525,209	0,0694
525,409	0,06976
525,609	0,0699
525,809	0,07038
526,009	0,07062
526,209	0,07126
526,41	0,07149
526,61	0,07214
526,81	0,0726
527,01	0,07288
527,21	0,07313
527,41	0,07359
527,61	0,07385
527,81	0,07425
528,01	0,07445
528,21	0,07486
528,41	0,07469
528,61	0,07492
528,81	0,07491
529,01	0,07502
529,21	0,07537
529,41	0,07559
529,609	0,07568
529,809	0,07594
530,009	0,07608
530,209	0,07639
530,409	0,07647
530,609	0,07706
530,808	0,07723
531,008	0,07748
531,208	0,07792
531,408	0,07822
531,608	0,07844
531,807	0,07875
532,007	0,07916
532,207	0,07961
532,406	0,07967
532,606	0,08016
532,806	0,08046
533,005	0,08086
533,205	0,08108
533,405	0,08109
533,604	0,08144
533,804	0,08173
534,003	0,08213
534,203	0,08219
534,403	0,08214
534,602	0,08236
534,802	0,08238
535,001	0,08268
535,201	0,08286
535,4	0,08301
535,6	0,08346
535,799	0,08352
535,998	0,08375
536,198	0,08396
536,397	0,08434
536,597	0,0848
536,796	0,08522
536,995	0,08556
537,195	0,08569
537,394	0,08591
537,594	0,08634
537,793	0,08645
537,992	0,08682
538,191	0,0871
538,391	0,08733
538,59	0,08732
538,789	0,0873
538,988	0,0873
539,188	0,08743
539,387	0,08753
539,586	0,08765
539,785	0,0877
539,984	0,08779
540,184	0,08791
540,383	0,0882
540,582	0,08824
540,781	0,08851
540,98	0,08891
541,179	0,08919
541,378	0,08949
541,577	0,08972
541,776	0,09009
541,975	0,09034
542,174	0,09055
542,373	0,09075
542,572	0,09078
542,771	0,09099
542,97	0,09118
543,169	0,0912
543,368	0,09122
543,567	0,09141
543,766	0,09154
543,965	0,09169
544,164	0,0918
544,362	0,09203
544,561	0,09201
544,76	0,09224
544,959	0,09244
545,158	0,09259
545,356	0,09286
545,555	0,09324
545,754	0,0933
545,953	0,09347
546,151	0,09354
546,35	0,09372
546,549	0,0939
546,748	0,09412
546,946	0,09421
547,145	0,0943
547,344	0,09452
547,542	0,0946
547,741	0,0947
547,939	0,09471
548,138	0,09475
548,337	0,09486
548,535	0,09481
548,734	0,09481
548,932	0,09495
549,131	0,09498
549,329	0,09509
549,528	0,09525
549,726	0,0953
549,925	0,09538
550,123	0,09561
550,322	0,09578
550,52	0,09589
550,718	0,09606
550,917	0,09626
551,115	0,09623
551,313	0,09638
551,512	0,09647
551,71	0,09651
551,908	0,09678
552,107	0,09708
552,305	0,09714
552,503	0,09724
552,702	0,0973
552,9	0,09736
553,098	0,0973
553,296	0,09749
553,495	0,09758
553,693	0,09764
553,891	0,09761
554,089	0,09759
554,287	0,09756
554,485	0,09761
554,683	0,09769
554,882	0,09782
555,08	0,09808
555,278	0,0983
555,476	0,09851
555,674	0,09878
555,872	0,09897
556,07	0,09911
556,268	0,09916
556,466	0,0991
556,664	0,09959
556,862	0,09975
557,06	0,09985
557,258	0,09981
557,456	0,09999
557,654	0,10001
557,851	0,0999
558,049	0,09987
558,247	0,10004
558,445	0,10022
558,643	0,10031
558,841	0,09999
559,039	0,10006
559,236	0,10014
559,434	0,10036
559,632	0,10042
559,83	0,10057
560,027	0,10061
560,225	0,10091
560,423	0,10108
560,62	0,10122
560,818	0,10126
561,016	0,10161
561,213	0,10177
561,411	0,1019
561,609	0,10198
561,806	0,10203
562,004	0,10209
562,202	0,10237
562,399	0,10256
562,597	0,10267
562,794	0,10283
562,992	0,10314
563,189	0,10318
563,387	0,10321
563,584	0,1036
563,782	0,10376
563,979	0,10384
564,177	0,10404
564,374	0,10415
564,571	0,10429
564,769	0,10438
564,966	0,10443
565,164	0,10458
565,361	0,10476
565,558	0,10494
565,756	0,10487
565,953	0,10503
566,15	0,10529
566,347	0,10561
566,545	0,10587
566,742	0,10598
566,939	0,10613
567,136	0,10645
567,334	0,1066
567,531	0,10681
567,728	0,10717
567,925	0,10753
568,122	0,10776
568,319	0,108
568,517	0,10811
568,714	0,10823
568,911	0,10845
569,108	0,10894
569,305	0,10915
569,502	0,10936
569,699	0,10963
569,896	0,1098
570,093	0,11009
570,29	0,11049
570,487	0,11075
570,684	0,11107
570,881	0,11137
571,078	0,11163
571,275	0,11172
571,472	0,11199
571,669	0,1123
571,866	0,11263
572,062	0,11286
572,259	0,11299
572,456	0,11305
572,653	0,1134
572,85	0,11355
573,047	0,11384
573,243	0,11416
573,44	0,11433
573,637	0,11457
573,834	0,11482
574,03	0,11508
574,227	0,11536
574,424	0,11573
574,62	0,116
574,817	0,11634
575,014	0,11676
575,21	0,11695
575,407	0,11713
575,604	0,11747
575,8	0,11772
575,997	0,11816
576,193	0,11832
576,39	0,11878
576,586	0,11898
576,783	0,11945
576,979	0,11967
577,176	0,11974
577,372	0,12008
577,569	0,12037
577,765	0,12068
577,962	0,12106
578,158	0,12129
578,355	0,12158
578,551	0,12181
578,747	0,12197
578,944	0,12206
579,14	0,12224
579,336	0,12271
579,533	0,12301
579,729	0,12335
579,925	0,12358
580,122	0,12387
580,318	0,12405
580,514	0,12436
580,71	0,12453
580,906	0,12492
581,103	0,12526
581,299	0,12568
581,495	0,12579
581,691	0,12612
581,887	0,12634
582,084	0,12669
582,28	0,12689
582,476	0,12722
582,672	0,12742
582,868	0,12771
583,064	0,12808
583,26	0,12831
583,456	0,12844
583,652	0,12874
583,848	0,12903
584,044	0,12938
584,24	0,12953
584,436	0,1298
584,632	0,12983
584,828	0,13005
585,024	0,13019
585,22	0,13031
585,416	0,13049
585,611	0,13066
585,807	0,13086
586,003	0,13106
586,199	0,13104
586,395	0,13139
586,591	0,13146
586,786	0,13181
586,982	0,13191
587,178	0,13217
587,374	0,13226
587,569	0,13234
587,765	0,13237
587,961	0,13237
588,156	0,1324
588,352	0,13252
588,548	0,13243
588,743	0,13252
588,939	0,13228
589,135	0,1324
589,33	0,13225
589,526	0,13215
589,721	0,13221
589,917	0,13228
590,112	0,13225
590,308	0,13203
590,503	0,13218
590,699	0,13203
590,894	0,13193
591,09	0,13207
591,285	0,13184
591,481	0,13176
591,676	0,13177
591,872	0,13151
592,067	0,13124
592,262	0,13121
592,458	0,13113
592,653	0,13085
592,848	0,13073
593,044	0,13057
593,239	0,13037
593,434	0,13029
593,629	0,13023
593,825	0,1301
594,02	0,13003
594,215	0,13009
594,41	0,12992
594,606	0,12972
594,801	0,12955
594,996	0,12938
595,191	0,12925
595,386	0,12902
595,581	0,12875
595,777	0,12844
595,972	0,12805
596,167	0,12765
596,362	0,12722
596,557	0,12677
596,752	0,12641
596,947	0,12597
597,142	0,12563
597,337	0,12511
597,532	0,12473
597,727	0,12439
597,922	0,12393
598,117	0,1236
598,312	0,12322
598,507	0,12272
598,701	0,12225
598,896	0,12181
599,091	0,12143
599,286	0,12098
599,481	0,12042
599,676	0,12003
599,87	0,11947
600,065	0,11897
600,26	0,1186
600,455	0,11811
600,65	0,11769
600,844	0,11714
601,039	0,11659
601,234	0,11597
601,428	0,11543
601,623	0,11498
601,818	0,11437
602,012	0,11401
602,207	0,11349
602,402	0,11279
602,596	0,11218
602,791	0,11159
602,985	0,11102
603,18	0,11045
603,374	0,10984
603,569	0,10921
603,763	0,10858
603,958	0,10797
604,152	0,10729
604,347	0,1066
604,541	0,10588
604,736	0,10526
604,93	0,10464
605,125	0,10388
605,319	0,10322
605,513	0,10256
605,708	0,10178
605,902	0,10109
606,096	0,10028
606,291	0,09955
606,485	0,09876
606,679	0,0982
606,874	0,09744
607,068	0,09666
607,262	0,09609
607,456	0,09546
607,65	0,09466
607,845	0,09404
608,039	0,09341
608,233	0,09268
608,427	0,09196
608,621	0,09134
608,815	0,09063
609,01	0,08995
609,204	0,08924
609,398	0,08863
609,592	0,08795
609,786	0,08735
609,98	0,08673
610,174	0,08598
610,368	0,08539
610,562	0,08468
610,756	0,08397
610,95	0,08327
611,144	0,08263
611,338	0,08194
611,532	0,08117
611,726	0,08046
611,919	0,07985
612,113	0,07918
612,307	0,07848
612,501	0,07778
612,695	0,07712
612,889	0,07646
613,082	0,07573
613,276	0,07505
613,47	0,07453
613,664	0,0739
613,857	0,07303
614,051	0,07238
614,245	0,07158
614,439	0,07098
614,632	0,07043
614,826	0,06969
615,02	0,06899
615,213	0,06839
615,407	0,06778
615,6	0,06703
615,794	0,06633
615,988	0,06585
616,181	0,0652
616,375	0,06463
616,568	0,06393
616,762	0,06323
616,955	0,06274
617,149	0,06212
617,342	0,06141
617,536	0,06079
617,729	0,06014
617,923	0,05963
618,116	0,05906
618,309	0,05837
618,503	0,05782
618,696	0,05724
618,889	0,05663
619,083	0,0558
619,276	0,05527
619,469	0,05467
619,663	0,05407
619,856	0,05351
620,049	0,05302
620,242	0,05246
620,436	0,05196
620,629	0,05147
620,822	0,05099
621,015	0,05046
621,209	0,05018
621,402	0,04964
621,595	0,04926
621,788	0,04881
621,981	0,04827
622,174	0,04763
622,367	0,04709
622,56	0,04649
622,753	0,0459
622,946	0,04543
623,139	0,04484
623,332	0,04422
623,525	0,04367
623,718	0,04316
623,911	0,04263
624,104	0,04212
624,297	0,04157
624,49	0,0412
624,683	0,04085
624,876	0,04044
625,069	0,03995
625,262	0,03959
625,454	0,03918
625,647	0,03882
625,84	0,03828
626,033	0,0378
626,226	0,03748
626,418	0,03719
626,611	0,03668
626,804	0,03618
626,997	0,03562
627,189	0,0352
627,382	0,03472
627,575	0,03439
627,767	0,03401
627,96	0,03366
628,153	0,03332
628,345	0,03298
628,538	0,03258
628,731	0,03223
628,923	0,03184
629,116	0,03165
629,308	0,0312
629,501	0,03091
629,693	0,03062
629,886	0,03037
630,078	0,03003
630,271	0,02965
630,463	0,0293
630,656	0,029
630,848	0,02862
631,04	0,02834
631,233	0,02799
631,425	0,02782
631,617	0,02746
631,81	0,02701
632,002	0,02657
632,194	0,02631
632,387	0,02612
632,579	0,02571
632,771	0,02534
632,964	0,02513
633,156	0,02486
633,348	0,02449
633,54	0,02421
633,732	0,0239
633,925	0,02376
634,117	0,02361
634,309	0,02334
634,501	0,02301
634,693	0,02279
634,885	0,02259
635,077	0,02223
635,269	0,022
635,462	0,02179
635,654	0,02151
635,846	0,02139
636,038	0,02107
636,23	0,02082
636,422	0,02059
636,614	0,02035
636,806	0,02015
636,997	0,01999
637,189	0,01986
637,381	0,01955
637,573	0,01937
637,765	0,01911
637,957	0,01881
638,149	0,01863
638,341	0,0185
638,532	0,01822
638,724	0,01799
638,916	0,01792
639,108	0,01767
639,299	0,01749
639,491	0,0174
639,683	0,01726
639,875	0,01718
640,066	0,01702
640,258	0,01674
640,45	0,01648
640,641	0,01645
640,833	0,01632
641,025	0,01609
641,216	0,0159
641,408	0,01567
641,599	0,01546
641,791	0,01533
641,982	0,01518
642,174	0,01499
642,366	0,01496
642,557	0,01468
642,748	0,01431
642,94	0,01416
643,131	0,01392
643,323	0,01379
643,514	0,0137
643,706	0,01365
643,897	0,01351
644,088	0,01333
644,28	0,01323
644,471	0,01312
644,662	0,01314
644,854	0,01316
645,045	0,0131
645,236	0,01298
645,428	0,01286
645,619	0,01259
645,81	0,01249
646,001	0,01226
646,193	0,01206
646,384	0,01192
646,575	0,01175
646,766	0,01148
646,957	0,01142
647,148	0,01115
647,339	0,01106
647,531	0,0111
647,722	0,01108
647,913	0,01086
648,104	0,01075
648,295	0,01069
648,486	0,01062
648,677	0,01042
648,868	0,01042
649,059	0,01027
649,25	0,01021
649,441	0,01013
649,632	0,00978
649,823	0,00977
650,013	0,00969
650,204	0,00955
650,395	0,00945
650,586	0,00931
650,777	0,00929
650,968	0,0091
651,159	0,00898
651,349	0,00883
651,54	0,00868
651,731	0,0086
651,922	0,00856
652,112	0,00847
652,303	0,00846
652,494	0,00838
652,684	0,0083
652,875	0,00831
653,066	0,00836
653,256	0,00829
653,447	0,0083
653,638	0,00823
653,828	0,00822
654,019	0,00808
654,209	0,00798
654,4	0,00783
654,59	0,00783
654,781	0,00789
654,972	0,00766
655,162	0,00758
655,352	0,00743
655,543	0,00732
655,733	0,00728
655,924	0,00729
656,114	0,00714
656,305	0,00714
656,495	0,00716
656,685	0,00699
656,876	0,00681
657,066	0,00678
657,256	0,00676
657,447	0,0069
657,637	0,00691
657,827	0,0069
658,017	0,00687
658,208	0,00684
658,398	0,0067
658,588	0,00664
658,778	0,00662
658,968	0,00656
659,159	0,00656
659,349	0,00646
659,539	0,00634
659,729	0,0063
659,919	0,00626
660,109	0,00614
660,299	0,00621
660,489	0,00631
660,679	0,00625
660,869	0,00617
661,059	0,00614
661,249	0,00606
661,439	0,00599
661,629	0,00591
661,819	0,00588
662,009	0,00583
662,199	0,00586
662,389	0,00573
662,579	0,00557
662,769	0,00547
662,959	0,0055
663,149	0,00552
663,338	0,00553
663,528	0,00549
663,718	0,00544
663,908	0,00531
664,097	0,00513
664,287	0,00501
664,477	0,00497
664,667	0,00492
664,856	0,00498
665,046	0,00495
665,236	0,00484
665,425	0,00479
665,615	0,00476
665,805	0,00478
665,994	0,00489
666,184	0,00498
666,373	0,00494
666,563	0,00501
666,753	0,00497
666,942	0,00493
667,132	0,00483
667,321	0,00479
667,511	0,00481
667,7	0,0048
667,889	0,00472
668,079	0,00464
668,268	0,00465
668,458	0,00468
668,647	0,00456
668,836	0,00453
669,026	0,0045
669,215	0,00451
669,404	0,00459
669,594	0,00444
669,783	0,00439
669,972	0,00446
670,162	0,00439
670,351	0,00426
670,54	0,00418
670,729	0,00417
670,919	0,00428
671,108	0,00423
671,297	0,00422
671,486	0,00421
671,675	0,00424
671,864	0,00423
672,053	0,00418
672,243	0,00415
672,432	0,00411
672,621	0,00412
672,81	0,00402
672,999	0,0039
673,188	0,00396
673,377	0,0039
673,566	0,00382
673,755	0,00382
673,944	0,00371
674,133	0,00357
674,322	0,00362
674,51	0,00368
674,699	0,00368
674,888	0,00361
675,077	0,00367
675,266	0,0035
675,455	0,00354
675,644	0,0035
675,832	0,00344
676,021	0,00351
676,21	0,00366
676,399	0,00359
676,587	0,00356
676,776	0,00351
676,965	0,00361
677,153	0,00355
677,342	0,00354
677,531	0,00348
677,719	0,00337
677,908	0,00342
678,097	0,00344
678,285	0,0034
678,474	0,00336
678,662	0,00338
678,851	0,0034
679,039	0,00329
679,228	0,0032
679,416	0,00332
679,605	0,0033
679,793	0,00337
679,982	0,00326
680,17	0,00319
680,359	0,00313
680,547	0,00312
680,736	0,00308
680,924	0,00309
681,112	0,00315
681,301	0,0032
681,489	0,00316
681,677	0,00317
681,866	0,00314
682,054	0,00317
682,242	0,00314
682,43	0,00319
682,619	0,00314
682,807	0,00307
682,995	0,00292
683,183	0,00282
683,371	0,00294
683,559	0,00296
683,748	0,00289
683,936	0,00295
684,124	0,00291
684,312	0,00289
684,5	0,00274
684,688	0,0028
684,876	0,00282
685,064	0,00278
685,252	0,0028
685,44	0,00264
685,628	0,00251
685,816	0,00263
686,004	0,00254
686,192	0,00247
686,38	0,0025
686,568	0,0025
686,756	0,0024
686,944	0,00241
687,131	0,00249
687,319	0,00251
687,507	0,0025
687,695	0,00243
687,883	0,00229
688,07	0,00227
688,258	0,00241
688,446	0,00234
688,634	0,00241
688,821	0,00242
689,009	0,00238
689,197	0,00243
689,384	0,00245
689,572	0,00243
689,76	0,00253
689,947	0,00262
690,135	0,00264
690,323	0,00266
690,51	0,00273
690,698	0,00266
690,885	0,00269
691,073	0,00271
691,26	0,00263
691,448	0,00265
691,635	0,00259
691,823	0,00257
692,01	0,0025
692,197	0,00243
692,385	0,00234
692,572	0,00235
692,76	0,00238
692,947	0,00239
693,134	0,00243
693,322	0,00236
693,509	0,0023
693,696	0,00231
693,884	0,00225
694,071	0,00224
694,258	0,00231
694,445	0,00236
694,633	0,00231
694,82	0,00221
695,007	0,0023
695,194	0,00222
695,381	0,0022
695,568	0,0022
695,756	0,00222
695,943	0,00218
696,13	0,00208
696,317	0,00213
696,504	0,00207
696,691	0,00205
696,878	0,00202
697,065	0,00192
697,252	0,00198
697,439	0,00207
697,626	0,00208
697,813	0,00209
698	0,00208
698,187	0,00205
698,374	0,00202
698,561	0,00201
698,747	0,00201
698,934	0,00207
699,121	0,00207
699,308	0,00204
699,495	0,00203
699,682	0,00207
699,868	0,00199
700,055	0,00198
700,242	0,00198
700,429	0,00185
700,615	0,00181
700,802	0,00171
700,989	0,00161
701,175	0,00154
701,362	0,00156
701,549	0,0015
701,735	0,0014
701,922	0,00148
702,108	0,00158
702,295	0,00166
702,482	0,00162
702,668	0,00168
702,855	0,0017
703,041	0,00183
703,228	0,00193
703,414	0,00186
703,601	0,00191
703,787	0,00195
703,973	0,0019
704,16	0,00178
704,346	0,00183
704,533	0,00187
704,719	0,00179
704,905	0,00179
705,092	0,00175
705,278	0,00169
705,464	0,00165
705,65	0,00166
705,837	0,00163
706,023	0,00161
706,209	0,0017
706,395	0,00167
706,582	0,00174
706,768	0,00183
706,954	0,00188
707,14	0,0018
707,326	0,00178
707,512	0,00179
707,698	0,00182
707,885	0,00179
708,071	0,0018
708,257	0,00174
708,443	0,00169
708,629	0,0017
708,815	0,00166
709,001	0,0016
709,187	0,00162
709,373	0,00166
709,559	0,00162
709,745	0,00156
709,93	0,00144
710,116	0,00144
710,302	0,0015
710,488	0,0015
710,674	0,00147
710,86	0,00147
711,046	0,00159
711,231	0,00165
711,417	0,00155
711,603	0,00156
711,789	0,00157
711,974	0,00177
712,16	0,00172
712,346	0,00162
712,532	0,00159
712,717	0,00154
712,903	0,00153
713,089	0,00143
713,274	0,00139
713,46	0,00137
713,645	0,00139
713,831	0,00143
714,016	0,00126
714,202	0,00136
714,388	0,00159
714,573	0,00147
714,759	0,00151
714,944	0,00153
715,129	0,0015
715,315	0,00155
715,5	0,00163
715,686	0,00159
715,871	0,00155
716,057	0,00163
716,242	0,00165
716,427	0,0014
716,613	0,00154
716,798	0,00153
716,983	0,00147
717,168	0,00156
717,354	0,00158
717,539	0,00157
717,724	0,00157
717,909	0,00156
718,095	0,0016
718,28	0,00147
718,465	0,00155
718,65	0,00156
718,835	0,00145
719,02	0,00145
719,206	0,00137
719,391	0,00133
719,576	0,00122
719,761	0,00128
719,946	0,00127
720,131	0,00115
720,316	0,00115
720,501	0,00115
720,686	0,00118
720,871	0,00133
721,056	0,00131
721,241	0,00118
721,426	0,00117
721,61	0,00126
721,795	0,0012
721,98	0,00113
722,165	0,00115
722,35	0,00134
722,535	0,00133
722,719	0,00128
722,904	0,00119
723,089	0,00125
723,274	0,00135
723,458	0,00124
723,643	0,00125
723,828	0,00125
724,013	0,0013
724,197	0,00131
724,382	0,00111
724,567	0,0011
724,751	0,00111
724,936	0,00113
725,12	0,00102
725,305	0,00105
725,489	0,00114
725,674	0,00106
725,859	0,00115
726,043	0,00116
726,228	0,00121
726,412	0,00124
726,596	0,00129
726,781	0,00129
726,965	0,00132
727,15	0,00147
727,334	0,0015
727,518	0,00139
727,703	0,00149
727,887	0,00142
728,072	0,00146
728,256	0,00141
728,44	0,00139
728,624	0,00137
728,809	0,00121
728,993	0,00119
729,177	0,00117
729,361	0,00118
729,546	0,00124
729,73	0,00123
729,914	0,00109
730,098	0,00103
730,282	0,00103
730,466	0,00098
730,65	0,00096
730,834	0,00107
731,019	0,00105
731,203	0,00093
731,387	0,00093
731,571	0,00088
731,755	0,00081
731,939	0,00085
732,123	0,00083
732,306	0,00086
732,49	0,00098
732,674	0,00095
732,858	0,00094
733,042	0,00089
733,226	0,00105
733,41	0,00103
733,594	0,00109
733,778	0,00108
733,961	0,00119
734,145	0,00124
734,329	0,00126
734,513	0,00128
734,696	0,00138
734,88	0,00139
735,064	0,0014
735,247	0,00124
735,431	0,00127
735,615	0,00118
735,798	0,00133
735,982	0,00135
736,166	0,00139
736,349	0,00133
736,533	0,00123
736,716	0,00121
736,9	0,00118
737,083	0,0012
737,267	0,00123
737,45	0,00111
737,634	0,00113
737,817	0,00105
738,001	0,00103
738,184	0,00098
738,368	0,00098
738,551	0,00084
738,734	0,00075
738,918	0,0008
739,101	0,00094
739,284	0,00094
739,468	0,00108
739,651	0,00118
739,834	0,00114
740,018	0,00099
740,201	0,00101
740,384	0,00101
740,567	0,0012
740,75	0,00125
740,934	0,00119
741,117	0,00098
741,3	0,001
741,483	0,00092
741,666	0,00083
741,849	0,00091
742,032	0,001
742,215	0,001
742,399	0,001
742,582	0,00093
742,765	0,00092
742,948	0,00101
743,131	0,00117
743,314	0,00111
743,496	0,00108
743,679	0,00117
743,862	0,00125
744,045	0,00125
744,228	0,00122
744,411	0,00128
744,594	0,00136
744,777	0,00142
744,959	0,00138
745,142	0,0014
745,325	0,00142
745,508	0,00134
745,691	0,00139
745,873	0,00131
746,056	0,00128
746,239	0,00126
746,421	0,00131
746,604	0,0012
746,787	0,00119
746,969	0,00118
747,152	0,00104
747,335	0,00104
747,517	0,00117
747,7	0,00117
747,882	0,00124
748,065	0,00122
748,247	0,00127
748,43	0,00116
748,612	0,00121
748,795	0,00115
748,977	0,0011
749,16	0,00116
749,342	0,0013
749,524	0,00134
749,707	0,00124
749,889	0,00107
750,072	0,00101
750,254	0,00088
750,436	0,00086
750,619	0,00083
750,801	0,00076
750,983	0,00081
751,165	0,00078
751,348	0,00062
751,53	0,0005
751,712	0,00052
751,894	0,00054
752,076	0,00072
752,259	0,00076
752,441	0,00081
752,623	0,00086
752,805	0,00082
752,987	0,00073
753,169	0,00075
753,351	0,00072
753,533	0,00074
753,715	0,0008
753,897	0,00086
754,079	0,00074
754,261	0,0007
754,443	0,00067
754,625	0,00071
754,807	0,00086
754,989	0,00099
755,171	0,00099
755,353	0,00105
755,534	0,001
755,716	0,001
755,898	0,00097
756,08	0,00105
756,262	0,00105
756,443	0,00099
756,625	0,00097
756,807	0,00082
756,989	0,00066
757,17	0,00062
757,352	0,00067
757,534	0,00077
757,715	0,00069
757,897	0,0007
758,079	0,00063
758,26	0,00071
758,442	0,00073
758,623	0,00065
758,805	0,0007
758,987	0,00075
759,168	0,00063
759,35	0,00052
759,531	0,0005
759,713	0,00053
759,894	0,00045
760,075	0,00047
760,257	0,00035
760,438	0,00036
760,62	0,00032
760,801	0,00038
760,982	0,00045
761,164	0,00055
761,345	0,0006
761,526	0,00057
761,708	0,00059
761,889	0,00053
762,07	0,00051
762,251	0,00072
762,433	0,00085
762,614	0,00083
762,795	0,00078
762,976	0,00069
763,157	0,0008
763,338	0,00079
763,52	0,00073
763,701	0,00055
763,882	0,00065
764,063	0,00067
764,244	0,00056
764,425	0,00049
764,606	0,00054
764,787	0,00061
764,968	0,00063
765,149	0,00055
765,33	0,00056
765,511	0,00064
765,692	0,00067
765,873	0,00065
766,053	0,0005
766,234	0,00049
766,415	0,00045
766,596	0,00035
766,777	0,00021
766,958	0,00018
767,138	0,00022
767,319	0,00017
767,5	0,00016
767,681	0,00011
767,861	0,00018
768,042	0,00027
768,223	0,00029
768,403	0,00024
768,584	0,00035
768,765	0,00038
768,945	0,0003
769,126	0,00036
769,307	0,00045
769,487	0,00036
769,668	0,00052
769,848	0,00045
770,029	0,00054
770,209	0,00043
770,39	0,00048
770,57	0,00051
770,751	0,00057
770,931	0,00061
771,111	0,00046
771,292	0,00042
771,472	0,00041
771,653	0,00043
771,833	0,00038
772,013	0,00037
772,194	0,00055
772,374	0,00042
772,554	0,00035
772,734	0,00035
772,915	0,0005
773,095	0,00058
773,275	0,00057
773,455	0,00056
773,635	0,0004
773,816	0,00043
773,996	0,00044
774,176	0,00046
774,356	0,00054
774,536	0,00064
774,716	0,00059
774,896	0,00046
775,076	0,00035
775,256	0,00028
775,436	0,00035
775,616	0,00044
775,796	0,00049
775,976	0,00051
776,156	0,00044
776,336	0,0005
776,516	0,00042
776,696	0,00037
776,876	0,00046
777,056	0,00048
777,235	0,00055
777,415	0,00061
777,595	0,0005
777,775	0,0004
777,955	0,00028
778,134	0,00016
778,314	0,00024
778,494	0,00023
778,674	0,00031
778,853	0,00027
779,033	0,00032
779,213	0,0003
779,392	0,00022
779,572	0,0003
779,751	0,00034
779,931	0,00043
780,111	0,0005
780,29	0,00026
780,47	0,00025
780,649	0,00013
780,829	0,00009
781,008	0,00011
781,188	0,00019
781,367	0,0003
781,546	0,00035
781,726	0,00038
781,905	0,00029
782,085	0,00026
782,264	0,00038
782,443	0,00045
782,623	0,00055
782,802	0,00062
782,981	0,00059
783,161	0,00051
783,34	0,00044
783,519	0,00043
783,698	0,00043
783,878	0,00047
784,057	0,00043
784,236	0,00043
784,415	0,00045
784,594	0,00053
784,773	0,00049
784,952	0,00057
785,132	0,00054
785,311	0,0006
785,49	0,00046
785,669	0,00045
785,848	0,00045
786,027	0,00043
786,206	0,00041
786,385	0,00034
786,564	0,00029
786,743	0,00031
786,922	0,00023
787,1	0,0002
787,279	0,00014
787,458	0,00033
787,637	0,0004
787,816	0,0004
787,995	0,00042
788,174	0,00047
788,352	0,00052
788,531	0,0005
788,71	0,00061
788,889	0,00052
789,067	0,0004
789,246	0,00028
789,425	0,00028
789,603	0,00018
789,782	0,00009
789,961	0,00003
790,139	0,00006
790,318	-0,0001
790,496	-0,00003
790,675	-0,00004
790,853	0,00004
791,032	0,0001
791,211	0,0002
791,389	0,00012
791,568	0,00021
791,746	0,00028
791,924	0,00034
792,103	0,00025
792,281	0,00032
792,46	0,00022
792,638	0,00005
792,816	0,00012
792,995	0,00026
793,173	0,00025
793,351	0,0003
793,53	0,00034
793,708	0,00036
793,886	0,00045
794,064	0,00042
794,243	0,00045
794,421	0,00044
794,599	0,00051
794,777	0,00039
794,955	0,00031
795,133	0,00033
795,312	0,00016
795,49	0,00005
795,668	0
795,846	-0,00005
796,024	0,00012
796,202	0,00008
796,38	0,00008
796,558	0,00002
796,736	0,00005
796,914	0,00011
797,092	0,00014
797,27	0,00029
797,448	0,00022
797,626	0,00013
797,803	0,00008
797,981	-0,0001
798,159	-0,00015
798,337	-0,00008
798,515	-0
798,693	-0,00003
798,87	-0,00019
799,048	-0,00028
799,226	-0,00031
799,404	-0,00028
799,581	-0,00019
799,759	-0,00027
799,937	-0,00026
800,114	-0,00016
800,292	-0,00016
800,469	-0,00007
800,647	-0,00005
800,825	0,0001
801,002	0,00015
801,18	0,00007
801,357	0,00022
801,535	0,00024
801,712	0,0002
801,89	0,00024
802,067	0,00022
802,245	0,00011
802,422	0,00002
802,6	-0,00002
802,777	0,00003
802,954	0,00003
803,132	0,00014
803,309	-0,00001
803,486	-0,0001
803,664	0,00001
803,841	0,00021
804,018	0,00019
804,195	0,00038
804,373	0,00031
804,55	0,00046
804,727	0,00036
804,904	0,00038
805,081	0,00041
805,259	0,00043
805,436	0,0004
805,613	0,00045
805,79	0,00026
805,967	0,00029
806,144	0,00011
806,321	0,00012
806,498	0,00007
806,675	0,00015
806,852	0,00013
807,029	0,00013
807,206	0,00019
807,383	0,00048
807,56	0,00054
807,737	0,0006
807,914	0,00049
808,091	0,00063
808,268	0,00078
808,444	0,0008
808,621	0,00072
808,798	0,00041
808,975	0,00034
809,152	0,00017
809,328	-0,00007
809,505	-0,00015
809,682	-0,00018
809,858	-0,00015
810,035	-0,00031
810,212	-0,00061
810,388	-0,00069
810,565	-0,00043
810,742	-0,0002
810,918	-0,00012
811,095	-0,0001
811,271	-0,00008
811,448	-0,00009
811,625	-0,00014
811,801	-0,00012
811,978	0,00005
812,154	0,00002
812,33	0,00007
812,507	-0,00006
812,683	0,00004
812,86	-0,00002
813,036	0,00012
813,212	0,00021
813,389	0,00016
813,565	0,00016
813,741	0,00028
813,918	0,00016
814,094	0,00038
814,27	0,00044
814,447	0,0004
814,623	0,00042
814,799	0,00046
814,975	0,00047
815,151	0,00039
815,328	0,00041
815,504	0,00046
815,68	0,00046
815,856	0,0005
816,032	0,00052
816,208	0,00034
816,384	0,00021
816,56	0,0001
816,736	-0,00011
816,912	-0,00004
817,088	0,00006
817,264	0,0002
817,44	0,00006
817,616	0,00007
817,792	0,00002
817,968	0,00007
818,144	0,00028
818,32	0,00038
818,495	0,0004
818,671	0,00063
818,847	0,0004
819,023	0,00042
819,199	0,00037
819,374	0,00055
819,55	0,00039
819,726	0,00054
819,902	0,00042
820,077	0,00024
820,253	0,00015
820,429	0,00009
820,604	0,0002
820,78	0,00044
820,956	0,0002
821,131	0,00022
821,307	0,00019
821,482	0,00021
821,658	0,00033
821,833	0,00015
822,009	0,00001
822,184	0,00008
822,36	0,00019
822,535	0
822,711	-0,00018
822,886	0,00007
823,061	0,00004
823,237	0,00003
823,412	0,00014
823,587	-0,00003
823,763	-0
823,938	0,00016
824,113	0
824,289	-0,00003
824,464	0,00001
824,639	-0
824,814	-0,00024
824,99	-0,00028
825,165	-0,00031
825,34	-0,00033
825,515	-0,00026
825,69	-0,00019
825,865	-0,00016
826,04	0,0001
826,215	0,00029
826,39	0,00047
826,566	0,00071
826,741	0,00088
826,916	0,00097
827,091	0,00099
827,265	0,00098
827,44	0,00077
827,615	0,00087
827,79	0,00081
827,965	0,00071
828,14	0,00057
828,315	0,00045
828,49	0,0003
828,665	0,00031
828,839	0,00013
829,014	0,00008
829,189	0,00008
829,364	0,00007
829,538	0,00005
829,713	0,00015
829,888	0,00013
830,063	-0,00006
830,237	-0,00011
830,412	-0,00004
830,587	-0,00008
830,761	0,00012
830,936	0,0002
831,11	0,00017
831,285	0,00032
831,459	0,00053
831,634	0,00044
831,809	0,00058
831,983	0,00075
832,157	0,00066
832,332	0,00048
832,506	0,00055
832,681	0,00039
832,855	0,00027
833,03	0,00019
833,204	0,00019
833,378	-0,00004
833,553	-0,00002
833,727	-0,00004
833,901	-0
834,076	0,00023
834,25	0,00022
834,424	0,00021
834,598	0,00034
834,773	0,00042
834,947	0,00063
835,121	0,00062
835,295	0,00053
835,469	0,00061
835,643	0,00046
835,817	0,00028
835,991	-0,00005
836,166	0,00003
836,34	0,00008
836,514	0,00005
836,688	0,00012
836,862	-0,00004
837,036	-0,00019
837,21	0,00006
837,384	0,00018
837,557	0,00029
837,731	0,00039
837,905	0,00051
838,079	0,00053
838,253	0,00044
838,427	0,00043
838,601	0,00023
838,774	0,00014
838,948	0,00028
839,122	0,00026
839,296	0,00021
839,469	0,00021
839,643	-0,00002
839,817	-0,00017
839,991	-0,00022
840,164	-0,00016
840,338	-0,00033
840,512	-0,00017
840,685	0,00001
840,859	-0,00016
841,032	-0,00027
841,206	-0,00034
841,379	-0,00039
841,553	-0,00009
841,726	0,0001
841,9	0,00024
842,073	0,00024
842,247	0,0004
842,42	0,00027
842,594	0,0003
842,767	0,00049
842,94	0,0005
843,114	0,0006
843,287	0,0006
843,46	0,00057
843,634	0,00027
843,807	0,00005
843,98	-0,00009
844,154	-0,00008
844,327	-0,00013
844,5	-0,00025
844,673	-0,00029
844,846	-0,00029
845,02	-0,00042
845,193	-0,00044
845,366	-0,00038
845,539	-0,00015
845,712	-0,00001
845,885	-0,00021
846,058	-0,00032
846,231	-0,00024
846,404	-0,00021
846,577	-0,00021
846,75	-0,00018
846,923	-0,00003
847,096	-0,00011
847,269	-0,00016
847,442	-0,00021
847,615	-0,00015
847,788	0,00001
847,961	0,00016
848,133	0,00032
848,306	0,00033
848,479	0,00029
848,652	0,00021
848,825	-0,0001
848,997	-0,00008
849,17	-0,00022
849,343	-0,00014
849,515	-0,00008
849,688	0,00007
849,861	0,00005
850,033	-0,00004
850,206	-0,00007
850,379	0,00003
850,551	0,00004
850,724	0,0003
850,896	0,00017
851,069	0,00037
851,241	0,00039
851,414	0,00033
851,586	0,00025
851,759	0,00025
851,931	0,00024
852,104	0,00034
852,276	0,00019
852,449	0,00021
852,621	0,00015
852,793	0,00026
852,966	0,00025
853,138	0,00035
853,31	0,00027
853,483	0,00035
853,655	0,00047
853,827	0,00032
853,999	0,0002
854,172	0,00044
854,344	0,0005
854,516	0,00052
854,688	0,00053
854,86	0,00043
855,032	0,00028
855,204	0,00029
855,377	0,00018
855,549	-0,00001
855,721	0,00014
855,893	0,00012
856,065	0,00003
856,237	-0,00006
856,409	-0,00015
856,581	-0,00019
856,753	-0,00008
856,924	0,00001
857,096	-0,00008
857,268	0,00002
857,44	-0,00004
857,612	0,00013
857,784	0,00008
857,956	0,00003
858,127	-0,00007
858,299	-0,00011
858,471	0,00005
858,643	-0,00016
858,814	-0,00021
858,986	-0,00023
859,158	-0,00045
859,33	-0,00046
859,501	-0,00059
859,673	-0,00045
859,844	-0,00016
860,016	0,00015
860,188	0,0002
860,359	0,00014
860,531	0,00015
860,702	0,00009
860,874	0,00001
861,045	0,00017
861,217	0,00014
861,388	-0,00006
861,56	-0,0002
861,731	-0,00049
861,902	-0,00051
862,074	-0,00054
862,245	-0,00032
862,417	-0,0002
862,588	-0,00024
862,759	0,00003
862,931	0,00003
863,102	0,00017
863,273	0,00031
863,444	0,00028
863,616	0,00042
863,787	0,00009
863,958	-0,00004
864,129	-0,00032
864,3	-0,00048
864,471	-0,00027
864,642	-0,0002
864,814	-0,00019
864,985	-0,00028
865,156	-0,00047
865,327	-0,00058
865,498	-0,00056
865,669	-0,00033
865,84	-0,0003
866,011	-0,00021
866,182	-0,00013
866,353	-0,00021
866,523	-0,0005
866,694	-0,0003
866,865	-0,00029
867,036	-0,00016
867,207	0,0001
867,378	-0,00044
867,549	-0,00075
867,719	-0,00077
867,89	-0,00098
868,061	-0,00105
868,232	-0,00134
868,402	-0,00138
868,573	-0,00151
868,744	-0,00141
868,914	-0,00144
869,085	-0,00177
869,256	-0,00148
869,426	-0,00137
869,597	-0,00127
869,767	-0,0011
869,938	-0,00095
870,108	-0,00054
870,279	-0,00024
870,449	-0,00072
870,62	-0,00087
870,79	-0,00066
870,961	-0,00035
871,131	-0,00022
871,302	0,00025
871,472	0,0003
871,642	0,00031
871,813	0,00016
871,983	-0,00018
872,153	-0,00054
872,324	-0,00016
872,494	-0,00028
872,664	-0,00061
872,835	-0,00039
873,005	-0,00053
873,175	-0,00093
873,345	-0,00092
873,515	-0,00112
873,685	-0,00094
873,856	-0,00036
874,026	-0,00008
874,196	0,00001
874,366	0,00007
874,536	0,00005
874,706	-0,00024
874,876	-0,00013
875,046	-0,00038
875,216	-0,00033
875,386	0,00004
875,556	0,00005
875,726	-0,00045
875,896	-0,00069
876,066	-0,00063
876,236	-0,00075
876,405	-0,00047
876,575	-0,00061
876,745	-0,00081
876,915	-0,00019
877,085	-0,00021
877,254	-0,00043
877,424	-0,00038
877,594	-0,00032
877,764	-0,00017
877,933	-0,00028
878,103	-0,0001
878,273	0,00005
878,442	0,00032
878,612	0,00051
878,781	0,00022
878,951	0,0002
879,121	0,00007
879,29	0,00016
879,46	0,00035
879,629	0,00061
879,799	0,00065
879,968	0,00077
880,138	0,00093
880,307	0,00075
880,476	0,00076
880,646	0,00066
880,815	0,00071
880,985	0,00072
881,154	0,0007
881,323	0,00053
881,493	0,00045
881,662	0,00014
881,831	0,0002
882	-0,00034
882,17	0,0001
882,339	-0,00019
882,508	-0,0001
882,677	0,00023
882,846	0,00023
883,016	0
883,185	0,00012
883,354	0,00001
883,523	0,00016
883,692	0,00023
883,861	0,00036
884,03	-0,00041
884,199	-0,00021
884,368	0,00003
884,537	-0,00042
884,706	-0,00038
884,875	-0,00024
885,044	-0,00016
885,213	-0,00011
885,382	-0,00018
885,55	-0,00053
885,719	-0,00045
885,888	0,00025
886,057	0,0001
886,226	-0,0003
886,395	-0,00008
886,563	-0
886,732	-0,00021
886,901	-0,00053
887,069	-0,00057
887,238	-0,00058
887,407	-0,00036
887,575	-0,00022
887,744	-0,00051
887,913	-0,00051
888,081	-0,00044
888,25	-0,00057
888,418	-0,00069
888,587	-0,00079
888,755	-0,00052
888,924	-0,00021
889,092	0,00012
889,261	-0,00022
889,429	-0,00044
889,598	-0,00026
889,766	0,00004
889,935	0
890,103	-0,00035
890,271	-0,00035
890,44	-0,00027
890,608	-0,00081
890,776	-0,00122
890,944	-0,00155
891,113	-0,0011
891,281	-0,00117
891,449	-0,00147
891,617	-0,00191
891,786	-0,00191
891,954	-0,00165
892,122	-0,00135
892,29	-0,00094
892,458	-0,00062
892,626	-0,00055
892,794	-0,00041
892,962	-0,00063
893,13	-0,00049
893,298	-0,00027
893,466	0,00031
