Data from Chemiepractica_Absorbance__6__11-32-33-152.txt Node

Date: Mon Dec 09 11:32:33 CET 2024
User: r0948668
Spectrometer: USB4F07138
Trigger mode: 4
Integration Time (sec): 6,000000E-3
Scans to average: 20
Electric dark correction enabled: true
Nonlinearity correction enabled: false
Boxcar width: 5
XAxis mode: Wavelengths
Number of Pixels in Spectrum: 3648
>>>>>Begin Spectral Data<<<<<
176,779	-0
176,999	-0
177,218	-0
177,438	-1,4667
177,658	-0,51757
177,878	-0,24133
178,097	-0,13946
178,317	-0,18987
178,537	-0,2361
178,757	-0,12596
178,976	0,07315
179,196	-0
179,416	-0,4932
179,635	-0
179,855	0,21876
180,075	0,02408
180,294	-0,01855
180,514	-0,03557
180,734	-0,00905
180,953	0,00606
181,173	0,0095
181,392	-0,01458
181,612	-0,01569
181,832	0,00498
182,051	-0,01091
182,271	-0,01256
182,49	-0,0035
182,71	0,00276
182,929	0,0225
183,149	0,00379
183,368	0,00955
183,588	0,01232
183,807	0,0263
184,027	0,04236
184,246	0,04409
184,466	0,04231
184,685	0,06168
184,905	0,0605
185,124	0,0681
185,344	0,06623
185,563	0,07636
185,782	0,07486
186,002	0,06878
186,221	0,0623
186,44	0,0531
186,66	0,04368
186,879	0,05183
187,099	0,0321
187,318	0,02797
187,537	0,02481
187,756	0,02751
187,976	0,01762
188,195	0,01521
188,414	0,01513
188,634	0,02621
188,853	0,03099
189,072	0,02172
189,291	0,01873
189,511	0,04069
189,73	0,03916
189,949	0,0438
190,168	0,03134
190,387	0,04783
190,607	0,05157
190,826	0,04737
191,045	0,03137
191,264	0,02382
191,483	0,02781
191,702	0,02826
191,921	0,01562
192,141	0,01796
192,36	0,00152
192,579	0,01108
192,798	0,01907
193,017	0,00898
193,236	0,02625
193,455	0,03312
193,674	0,03307
193,893	0,02699
194,112	0,03413
194,331	0,03412
194,55	0,04088
194,769	0,04991
194,988	0,04202
195,207	0,03928
195,426	0,03564
195,645	0,02587
195,864	0,02481
196,083	0,01477
196,302	0,02452
196,521	0,02758
196,739	0,02467
196,958	0,02116
197,177	0,02653
197,396	0,04287
197,615	0,03062
197,834	0,04614
198,053	0,05048
198,271	0,04368
198,49	0,07387
198,709	0,0776
198,928	0,06148
199,147	0,06516
199,365	0,06879
199,584	0,06473
199,803	0,04371
200,022	0,04852
200,24	0,03977
200,459	0,04704
200,678	0,05778
200,897	0,05036
201,115	0,0399
201,334	0,05343
201,553	0,04685
201,771	0,03761
201,99	0,01881
202,209	0,04074
202,427	0,04416
202,646	0,05895
202,864	0,04112
203,083	0,03958
203,302	0,04947
203,52	0,06579
203,739	0,05641
203,957	0,06215
204,176	0,05947
204,394	0,07416
204,613	0,06657
204,831	0,06168
205,05	0,06242
205,268	0,05954
205,487	0,05427
205,705	0,03632
205,924	0,03269
206,142	0,03857
206,361	0,03961
206,579	0,04781
206,798	0,05162
207,016	0,04437
207,234	0,04596
207,453	0,04776
207,671	0,06527
207,89	0,08443
208,108	0,0903
208,326	0,07568
208,545	0,06384
208,763	0,05514
208,981	0,04972
209,2	0,02307
209,418	0,01697
209,636	0,00809
209,855	-0,00452
210,073	-0,01066
210,291	-0,03009
210,509	-0,03667
210,728	-0,03527
210,946	-0,02934
211,164	-0,02192
211,382	-0,01744
211,6	0,01502
211,819	0,01772
212,037	0,01564
212,255	0,0106
212,473	0,01133
212,691	0,0075
212,909	0,02644
213,128	0,03196
213,346	0,03792
213,564	0,03982
213,782	0,03307
214	0,03487
214,218	0,03724
214,436	0,04242
214,654	0,03874
214,872	0,03097
215,09	0,02089
215,308	0,01513
215,526	0,01592
215,744	0,01082
215,962	0,00291
216,18	0,00183
216,398	-0,00331
216,616	-0,00864
216,834	-0,00462
217,052	0,00023
217,27	-0,00223
217,488	0,01777
217,706	0,02326
217,924	0,02482
218,142	0,02557
218,36	0,03123
218,578	0,03867
218,795	0,03272
219,013	0,04322
219,231	0,03467
219,449	0,03297
219,667	0,04371
219,885	0,0402
220,102	0,04224
220,32	0,0409
220,538	0,04852
220,756	0,04275
220,973	0,04707
221,191	0,04524
221,409	0,05025
221,627	0,05541
221,844	0,06168
222,062	0,04759
222,28	0,04982
222,497	0,04004
222,715	0,03934
222,933	0,02303
223,15	0,02314
223,368	0,02312
223,586	0,03292
223,803	0,02436
224,021	0,03027
224,239	0,03095
224,456	0,0384
224,674	0,03315
224,891	0,02479
225,109	0,02248
225,326	0,01404
225,544	0,01169
225,762	-0,00318
225,979	-0,00076
226,197	0,00198
226,414	-0,00015
226,632	-0,00601
226,849	-0,01399
227,066	-0,00082
227,284	0,00748
227,501	0,01615
227,719	0,03292
227,936	0,03253
228,154	0,03972
228,371	0,02152
228,588	0,02307
228,806	0,02442
229,023	0,03876
229,241	0,0534
229,458	0,04971
229,675	0,05196
229,893	0,03623
230,11	0,0465
230,327	0,04553
230,545	0,0432
230,762	0,0435
230,979	0,04299
231,196	0,04633
231,414	0,0355
231,631	0,03379
231,848	0,01879
232,065	0,01413
232,283	0,02369
232,5	0,01268
232,717	-0,00005
232,934	-0,0006
233,151	0,02537
233,368	0,01288
233,586	0,01058
233,803	0,00478
234,02	0,00168
234,237	0,00272
234,454	0,00644
234,671	0,01913
234,888	0,01998
235,105	0,03693
235,322	0,0416
235,54	0,02482
235,757	0,04225
235,974	0,03766
236,191	0,03909
236,408	0,03016
236,625	0,03708
236,842	0,02806
237,059	0,01685
237,276	0,01375
237,493	0,02152
237,71	0,02815
237,926	0,0203
238,143	0,00803
238,36	0,01831
238,577	0,02299
238,794	0,02897
239,011	0,02779
239,228	0,02365
239,445	0,02503
239,662	0,0384
239,878	0,0313
240,095	0,03025
240,312	0,04513
240,529	0,04819
240,746	0,04355
240,963	0,04051
241,179	0,04427
241,396	0,06287
241,613	0,06749
241,83	0,06478
242,046	0,0486
242,263	0,05267
242,48	0,04545
242,697	0,04572
242,913	0,05485
243,13	0,03932
243,347	0,04991
243,563	0,05187
243,78	0,043
243,997	0,0528
244,213	0,05673
244,43	0,06956
244,646	0,07025
244,863	0,08165
245,08	0,07856
245,296	0,06975
245,513	0,07551
245,729	0,06083
245,946	0,06517
246,162	0,05278
246,379	0,04568
246,595	0,03925
246,812	0,03095
247,028	0,04162
247,245	0,04043
247,461	0,03175
247,678	0,03109
247,894	0,0451
248,111	0,04435
248,327	0,03867
248,544	0,04399
248,76	0,04699
248,976	0,05756
249,193	0,05474
249,409	0,04562
249,626	0,03705
249,842	0,04925
250,058	0,05406
250,275	0,04738
250,491	0,05357
250,707	0,06446
250,924	0,07006
251,14	0,06248
251,356	0,05935
251,572	0,06199
251,789	0,0647
252,005	0,05717
252,221	0,04858
252,437	0,03684
252,654	0,02387
252,87	0,01916
253,086	0,01931
253,302	0,01762
253,518	0,02583
253,735	0,0147
253,951	0,02166
254,167	0,01656
254,383	0,01754
254,599	0,01931
254,815	0,02579
255,031	0,02727
255,247	0,02326
255,463	0,01385
255,68	0,01927
255,896	0,0176
256,112	0,02449
256,328	0,01601
256,544	0,01711
256,76	0,02747
256,976	0,02817
257,192	0,02968
257,408	0,04408
257,624	0,03952
257,84	0,05241
258,056	0,04412
258,272	0,04243
258,487	0,03334
258,703	0,03896
258,919	0,03896
259,135	0,03722
259,351	0,03194
259,567	0,03669
259,783	0,03379
259,999	0,04831
260,215	0,04149
260,43	0,03458
260,646	0,04449
260,862	0,06072
261,078	0,05806
261,294	0,04656
261,509	0,05969
261,725	0,06689
261,941	0,06509
262,157	0,06266
262,372	0,06332
262,588	0,0492
262,804	0,06535
263,019	0,04253
263,235	0,03944
263,451	0,04918
263,667	0,06142
263,882	0,05815
264,098	0,05451
264,313	0,05525
264,529	0,05214
264,745	0,0594
264,96	0,05461
265,176	0,05189
265,391	0,06896
265,607	0,0658
265,823	0,05321
266,038	0,04812
266,254	0,04525
266,469	0,04923
266,685	0,03891
266,9	0,03658
267,116	0,0373
267,331	0,04672
267,547	0,04936
267,762	0,05266
267,978	0,0562
268,193	0,06302
268,408	0,06579
268,624	0,06576
268,839	0,06705
269,055	0,06619
269,27	0,0737
269,485	0,06321
269,701	0,06108
269,916	0,0499
270,132	0,04411
270,347	0,04853
270,562	0,04302
270,777	0,04401
270,993	0,03945
271,208	0,02171
271,423	0,03755
271,639	0,04317
271,854	0,03957
272,069	0,03842
272,284	0,04736
272,5	0,05818
272,715	0,04811
272,93	0,03842
273,145	0,02975
273,36	0,03979
273,576	0,06588
273,791	0,05811
274,006	0,05715
274,221	0,0618
274,436	0,06691
274,651	0,06298
274,866	0,05257
275,081	0,06559
275,296	0,07709
275,512	0,08673
275,727	0,08435
275,942	0,07069
276,157	0,06327
276,372	0,06225
276,587	0,06276
276,802	0,06934
277,017	0,06608
277,232	0,06806
277,447	0,05985
277,662	0,05365
277,877	0,0467
278,092	0,04538
278,306	0,05576
278,521	0,05962
278,736	0,06168
278,951	0,0585
279,166	0,04659
279,381	0,04444
279,596	0,05037
279,811	0,04822
280,025	0,04381
280,24	0,04632
280,455	0,04607
280,67	0,02965
280,885	0,03546
281,099	0,02364
281,314	0,01962
281,529	0,02128
281,744	0,0409
281,959	0,03567
282,173	0,04287
282,388	0,06144
282,603	0,05113
282,817	0,05359
283,032	0,06586
283,247	0,05834
283,461	0,05739
283,676	0,06077
283,891	0,07029
284,105	0,06179
284,32	0,06132
284,535	0,06049
284,749	0,04794
284,964	0,06891
285,178	0,0628
285,393	0,06917
285,607	0,07159
285,822	0,07935
286,036	0,08615
286,251	0,07317
286,465	0,06706
286,68	0,06726
286,894	0,06148
287,109	0,06994
287,323	0,04708
287,538	0,05178
287,752	0,03833
287,967	0,03454
288,181	0,02339
288,396	0,01996
288,61	0,03376
288,824	0,03688
289,039	0,04154
289,253	0,0415
289,467	0,04178
289,682	0,05226
289,896	0,05248
290,11	0,05734
290,325	0,05782
290,539	0,04981
290,753	0,04966
290,968	0,0306
291,182	0,02183
291,396	0,01581
291,61	0,01979
291,825	0,01674
292,039	0,0243
292,253	0,01487
292,467	0,01131
292,681	0,0145
292,896	0,02144
293,11	0,01542
293,324	0,0304
293,538	0,03677
293,752	0,04352
293,966	0,04242
294,18	0,04714
294,394	0,03818
294,608	0,04729
294,823	0,04572
295,037	0,04528
295,251	0,05891
295,465	0,06739
295,679	0,06242
295,893	0,0596
296,107	0,05307
296,321	0,04774
296,535	0,03323
296,749	0,03172
296,963	0,02145
297,177	0,01999
297,391	0,01958
297,604	0,01023
297,818	0,00659
298,032	0,00678
298,246	0,00713
298,46	0,00846
298,674	0,01739
298,888	0,02616
299,102	0,03166
299,315	0,04
299,529	0,04306
299,743	0,04784
299,957	0,048
300,171	0,0471
300,385	0,04874
300,598	0,04837
300,812	0,05189
301,026	0,04411
301,24	0,05372
301,453	0,04194
301,667	0,03471
301,881	0,03872
302,094	0,0345
302,308	0,03452
302,522	0,0449
302,735	0,04407
302,949	0,04628
303,163	0,03638
303,376	0,03348
303,59	0,03301
303,803	0,03352
304,017	0,03639
304,231	0,04133
304,444	0,04489
304,658	0,04601
304,871	0,03975
305,085	0,03931
305,298	0,03605
305,512	0,04036
305,725	0,0391
305,939	0,03092
306,152	0,03376
306,366	0,02933
306,579	0,02646
306,793	0,02396
307,006	0,03068
307,22	0,03021
307,433	0,02482
307,646	0,02488
307,86	0,02318
308,073	0,03065
308,286	0,02397
308,5	0,02737
308,713	0,02517
308,926	0,02339
309,14	0,01512
309,353	0,01405
309,566	0,00261
309,78	0,00177
309,993	0,00287
310,206	0,00942
310,419	0,00641
310,633	0,00456
310,846	0,01381
311,059	0,02162
311,272	0,02071
311,486	0,03049
311,699	0,02571
311,912	0,03314
312,125	0,03818
312,338	0,03397
312,551	0,02736
312,764	0,03189
312,978	0,04536
313,191	0,03992
313,404	0,03148
313,617	0,02697
313,83	0,02707
314,043	0,02751
314,256	0,03099
314,469	0,02848
314,682	0,03141
314,895	0,03293
315,108	0,04205
315,321	0,03752
315,534	0,02958
315,747	0,04425
315,96	0,05338
316,173	0,04747
316,386	0,05371
316,599	0,05657
316,812	0,06366
317,025	0,07069
317,237	0,06481
317,45	0,04881
317,663	0,04627
317,876	0,05651
318,089	0,05901
318,302	0,04513
318,515	0,04362
318,727	0,02942
318,94	0,02697
319,153	0,02775
319,366	0,02538
319,578	0,02288
319,791	0,03536
320,004	0,03532
320,217	0,03461
320,429	0,02999
320,642	0,04653
320,855	0,04197
321,067	0,04535
321,28	0,04717
321,493	0,04599
321,705	0,04728
321,918	0,05767
322,131	0,0527
322,343	0,04712
322,556	0,04862
322,768	0,0437
322,981	0,02774
323,194	0,03802
323,406	0,03582
323,619	0,02833
323,831	0,02958
324,044	0,0256
324,256	0,02233
324,469	0,01132
324,681	0,01617
324,894	0,01146
325,106	0,01485
325,319	0,00911
325,531	0,01131
325,743	0,01362
325,956	0,01903
326,168	0,01598
326,381	0,01618
326,593	0,01357
326,805	0,0257
327,018	0,02089
327,23	0,01773
327,442	0,02111
327,655	0,02513
327,867	0,01875
328,079	0,01874
328,292	0,01707
328,504	0,01679
328,716	0,01141
328,928	0,02036
329,141	0,02392
329,353	0,02697
329,565	0,02946
329,777	0,02585
329,99	0,03234
330,202	0,04149
330,414	0,04228
330,626	0,03813
330,838	0,04217
331,05	0,05179
331,263	0,04294
331,475	0,03914
331,687	0,04677
331,899	0,05149
332,111	0,04983
332,323	0,04613
332,535	0,04001
332,747	0,04684
332,959	0,04552
333,171	0,03519
333,383	0,02899
333,595	0,03282
333,807	0,02955
334,019	0,02443
334,231	0,02005
334,443	0,02085
334,655	0,02611
334,867	0,0252
335,079	0,01795
335,291	0,01688
335,503	0,02435
335,714	0,03048
335,926	0,03283
336,138	0,03149
336,35	0,02866
336,562	0,03313
336,774	0,02944
336,986	0,02618
337,197	0,02389
337,409	0,02612
337,621	0,02687
337,833	0,01948
338,044	0,02375
338,256	0,01715
338,468	0,02377
338,68	0,02628
338,891	0,01936
339,103	0,02266
339,315	0,0203
339,526	0,02086
339,738	0,01182
339,95	0,01626
340,161	0,03533
340,373	0,01249
340,585	0,00707
340,796	0,00392
341,008	0,00793
341,219	0,01753
341,431	0,01468
341,642	0,02488
341,854	0,02913
342,065	0,03956
342,277	0,03853
342,489	0,02726
342,7	0,04464
342,912	0,0479
343,123	0,0459
343,334	0,04379
343,546	0,02477
343,757	0,03089
343,969	0,02018
344,18	0,01711
344,392	0,01553
344,603	0,02359
344,814	0,02493
345,026	0,02458
345,237	0,02638
345,448	0,02555
345,66	0,02347
345,871	0,03735
346,082	0,04023
346,294	0,04818
346,505	0,05147
346,716	0,05231
346,927	0,05428
347,139	0,05494
347,35	0,05354
347,561	0,05389
347,772	0,05438
347,984	0,05668
348,195	0,06045
348,406	0,05203
348,617	0,05279
348,828	0,0428
349,039	0,04034
349,251	0,02966
349,462	0,02531
349,673	0,01881
349,884	0,02278
350,095	0,02272
350,306	0,01793
350,517	0,01601
350,728	0,00978
350,939	0,00425
351,15	0,01168
351,361	0,01452
351,572	0,02454
351,783	0,02618
351,994	0,02603
352,205	0,01924
352,416	0,01758
352,627	0,02052
352,838	0,01541
353,049	0,0279
353,26	0,03329
353,471	0,0317
353,682	0,03006
353,893	0,02777
354,103	0,0258
354,314	0,02673
354,525	0,03831
354,736	0,03965
354,947	0,04104
355,157	0,04192
355,368	0,03666
355,579	0,02442
355,79	0,02337
356,001	0,02432
356,211	0,02413
356,422	0,01354
356,633	0,01295
356,843	0,00212
357,054	0,00434
357,265	0,00456
357,476	0,00994
357,686	0,00578
357,897	0,01731
358,107	0,01441
358,318	0,01643
358,529	0,01437
358,739	0,03285
358,95	0,0352
359,16	0,04102
359,371	0,03675
359,582	0,03224
359,792	0,03207
360,003	0,0313
360,213	0,02529
360,424	0,03266
360,634	0,0378
360,845	0,03109
361,055	0,02464
361,266	0,0229
361,476	0,02692
361,686	0,02916
361,897	0,03057
362,107	0,02946
362,318	0,03351
362,528	0,03514
362,738	0,03336
362,949	0,02595
363,159	0,02828
363,369	0,02749
363,58	0,03007
363,79	0,02464
364	0,02454
364,211	0,02116
364,421	0,01545
364,631	0,02116
364,842	0,01763
365,052	0,00839
365,262	0,00526
365,472	0,00827
365,682	0,00838
365,893	0,00905
366,103	0,01287
366,313	0,01307
366,523	0,01825
366,733	0,01474
366,943	0,00992
367,154	0,01398
367,364	0,02573
367,574	0,02793
367,784	0,02989
367,994	0,03297
368,204	0,03499
368,414	0,03038
368,624	0,0313
368,834	0,03106
369,044	0,03777
369,254	0,03943
369,464	0,04055
369,674	0,03705
369,884	0,03294
370,094	0,0303
370,304	0,02368
370,514	0,02441
370,724	0,02848
370,934	0,02226
371,144	0,01725
371,353	0,01826
371,563	0,01548
371,773	0,01748
371,983	0,01713
372,193	0,02209
372,403	0,02527
372,612	0,02594
372,822	0,02299
373,032	0,0207
373,242	0,02401
373,452	0,02611
373,661	0,03049
373,871	0,02969
374,081	0,02619
374,29	0,02829
374,5	0,02595
374,71	0,01923
374,92	0,02286
375,129	0,02413
375,339	0,02157
375,549	0,02034
375,758	0,02237
375,968	0,01373
376,177	0,01317
376,387	0,00798
376,597	0,00583
376,806	0,00986
377,016	0,01346
377,225	0,01115
377,435	0,00616
377,644	0,00795
377,854	0,00733
378,063	0,00566
378,273	0,00835
378,482	0,01271
378,692	0,02009
378,901	0,02122
379,111	0,01964
379,32	0,02519
379,529	0,02674
379,739	0,03114
379,948	0,02974
380,158	0,03296
380,367	0,03479
380,576	0,03142
380,786	0,02643
380,995	0,02575
381,204	0,02716
381,414	0,02804
381,623	0,023
381,832	0,02539
382,041	0,02184
382,251	0,02465
382,46	0,02082
382,669	0,01752
382,878	0,01866
383,088	0,01978
383,297	0,01896
383,506	0,01965
383,715	0,01563
383,924	0,01543
384,133	0,01067
384,342	0,01402
384,552	0,01362
384,761	0,02015
384,97	0,02109
385,179	0,02827
385,388	0,02847
385,597	0,02773
385,806	0,02553
386,015	0,02703
386,224	0,02688
386,433	0,02644
386,642	0,02393
386,851	0,02241
387,06	0,01645
387,269	0,01646
387,478	0,01322
387,687	0,01662
387,896	0,01568
388,105	0,0161
388,314	0,01196
388,523	0,00972
388,731	0,01103
388,94	0,01193
389,149	0,01362
389,358	0,01751
389,567	0,02145
389,776	0,01756
389,984	0,01678
390,193	0,01864
390,402	0,01517
390,611	0,01875
390,819	0,02176
391,028	0,02081
391,237	0,02156
391,446	0,0199
391,654	0,01594
391,863	0,01559
392,072	0,02058
392,28	0,02112
392,489	0,01921
392,698	0,02202
392,906	0,02358
393,115	0,02151
393,324	0,02343
393,532	0,02152
393,741	0,01949
393,949	0,02054
394,158	0,01857
394,366	0,01386
394,575	0,01299
394,783	0,01224
394,992	0,01056
395,2	0,0069
395,409	0,00683
395,617	0,0056
395,826	0,00794
396,034	0,00861
396,243	0,01072
396,451	0,00955
396,66	0,01445
396,868	0,01218
397,076	0,01343
397,285	0,01074
397,493	0,01258
397,701	0,01265
397,91	0,01498
398,118	0,0161
398,326	0,0192
398,535	0,0146
398,743	0,01521
398,951	0,01379
399,159	0,01832
399,368	0,02025
399,576	0,02166
399,784	0,02294
399,992	0,02227
400,201	0,02018
400,409	0,01724
400,617	0,01519
400,825	0,02012
401,033	0,02122
401,241	0,02135
401,45	0,01785
401,658	0,01758
401,866	0,01988
402,074	0,01903
402,282	0,02238
402,49	0,02253
402,698	0,02486
402,906	0,02202
403,114	0,01817
403,322	0,01633
403,53	0,01719
403,738	0,0171
403,946	0,01432
404,154	0,01169
404,362	0,01264
404,57	0,00971
404,778	0,00956
404,986	0,01146
405,194	0,01736
405,402	0,02009
405,609	0,01993
405,817	0,01673
406,025	0,01843
406,233	0,02241
406,441	0,02515
406,649	0,02305
406,856	0,02357
407,064	0,02556
407,272	0,02323
407,48	0,02004
407,687	0,019
407,895	0,02105
408,103	0,02267
408,311	0,02255
408,518	0,01768
408,726	0,01699
408,934	0,01789
409,141	0,01784
409,349	0,01357
409,557	0,01402
409,764	0,01511
409,972	0,01754
410,18	0,01533
410,387	0,01472
410,595	0,0136
410,802	0,01546
411,01	0,01759
411,217	0,01711
411,425	0,01858
411,632	0,02122
411,84	0,02078
412,047	0,01836
412,255	0,01563
412,462	0,01775
412,67	0,01788
412,877	0,01804
413,085	0,01906
413,292	0,01628
413,499	0,01808
413,707	0,01654
413,914	0,01627
414,122	0,01611
414,329	0,01701
414,536	0,01892
414,744	0,01783
414,951	0,01798
415,158	0,01724
415,366	0,01654
415,573	0,01661
415,78	0,01537
415,987	0,01498
416,195	0,01605
416,402	0,0142
416,609	0,01588
416,816	0,01515
417,023	0,01681
417,231	0,01683
417,438	0,01802
417,645	0,01597
417,852	0,01589
418,059	0,01724
418,266	0,01655
418,473	0,01599
418,68	0,01829
418,888	0,01676
419,095	0,01748
419,302	0,01558
419,509	0,0142
419,716	0,01398
419,923	0,0164
420,13	0,01643
420,337	0,01655
420,544	0,01822
420,751	0,01838
420,958	0,01822
421,165	0,01948
421,371	0,01709
421,578	0,01708
421,785	0,01863
421,992	0,01786
422,199	0,01669
422,406	0,01805
422,613	0,01633
422,82	0,01544
423,026	0,01462
423,233	0,01394
423,44	0,01152
423,647	0,01311
423,854	0,01331
424,06	0,01164
424,267	0,01201
424,474	0,01265
424,681	0,01149
424,887	0,01319
425,094	0,01252
425,301	0,0136
425,507	0,0134
425,714	0,01436
425,921	0,01334
426,127	0,01191
426,334	0,01401
426,54	0,01415
426,747	0,01338
426,954	0,01329
427,16	0,01194
427,367	0,0125
427,573	0,01121
427,78	0,01141
427,986	0,01147
428,193	0,01162
428,399	0,01453
428,606	0,01295
428,812	0,01348
429,019	0,01419
429,225	0,0147
429,432	0,01588
429,638	0,01607
429,845	0,01667
430,051	0,01786
430,257	0,01774
430,464	0,01795
430,67	0,01646
430,876	0,01686
431,083	0,01669
431,289	0,01642
431,495	0,01752
431,702	0,01617
431,908	0,01598
432,114	0,0155
432,32	0,01452
432,527	0,01388
432,733	0,01415
432,939	0,01377
433,145	0,01441
433,351	0,01501
433,558	0,01603
433,764	0,01565
433,97	0,01475
434,176	0,01524
434,382	0,0168
434,588	0,01662
434,794	0,01649
435,001	0,01724
435,207	0,01749
435,413	0,0168
435,619	0,01591
435,825	0,01445
436,031	0,01313
436,237	0,01434
436,443	0,01482
436,649	0,01389
436,855	0,01393
437,061	0,01526
437,267	0,01421
437,473	0,01525
437,679	0,01692
437,884	0,01638
438,09	0,01643
438,296	0,016
438,502	0,01485
438,708	0,01442
438,914	0,01399
439,12	0,01395
439,325	0,01417
439,531	0,01467
439,737	0,01375
439,943	0,01232
440,149	0,01274
440,354	0,01372
440,56	0,0143
440,766	0,01516
440,972	0,0155
441,177	0,01573
441,383	0,01637
441,589	0,01554
441,794	0,01573
442	0,01667
442,206	0,01697
442,411	0,01769
442,617	0,01766
442,822	0,01859
443,028	0,01848
443,234	0,019
443,439	0,01933
443,645	0,01933
443,85	0,02019
444,056	0,02019
444,261	0,01987
444,467	0,01994
444,672	0,02023
444,878	0,02017
445,083	0,01997
445,289	0,01991
445,494	0,01909
445,699	0,01876
445,905	0,0189
446,11	0,01922
446,316	0,01884
446,521	0,01841
446,726	0,01869
446,932	0,01803
447,137	0,019
447,342	0,01819
447,548	0,01761
447,753	0,01762
447,958	0,01819
448,164	0,0167
448,369	0,01625
448,574	0,0156
448,779	0,01554
448,984	0,01566
449,19	0,01572
449,395	0,01492
449,6	0,01505
449,805	0,0165
450,01	0,01675
450,215	0,01649
450,421	0,01813
450,626	0,01832
450,831	0,01801
451,036	0,01848
451,241	0,01861
451,446	0,01876
451,651	0,01868
451,856	0,0195
452,061	0,01877
452,266	0,01912
452,471	0,02005
452,676	0,01958
452,881	0,01936
453,086	0,02136
453,291	0,02122
453,496	0,02014
453,701	0,01997
453,906	0,01972
454,111	0,01904
454,316	0,01924
454,52	0,01884
454,725	0,0183
454,93	0,0187
455,135	0,01968
455,34	0,01832
455,545	0,01884
455,749	0,01974
455,954	0,01957
456,159	0,02024
456,364	0,02174
456,568	0,02214
456,773	0,02288
456,978	0,02329
457,182	0,02355
457,387	0,02307
457,592	0,02394
457,796	0,02364
458,001	0,02463
458,206	0,02523
458,41	0,0252
458,615	0,02423
458,82	0,02499
459,024	0,02553
459,229	0,02604
459,433	0,02622
459,638	0,02641
459,842	0,02739
460,047	0,02771
460,251	0,02701
460,456	0,02687
460,66	0,02722
460,865	0,02753
461,069	0,0273
461,274	0,02696
461,478	0,02591
461,682	0,02585
461,887	0,02628
462,091	0,02587
462,296	0,0263
462,5	0,0266
462,704	0,02717
462,909	0,02687
463,113	0,02712
463,317	0,02715
463,522	0,02737
463,726	0,02831
463,93	0,02813
464,134	0,02807
464,339	0,02792
464,543	0,02813
464,747	0,02809
464,951	0,02844
465,155	0,02868
465,36	0,02968
465,564	0,02933
465,768	0,02943
465,972	0,02976
466,176	0,03002
466,38	0,03039
466,584	0,03144
466,788	0,03147
466,993	0,03189
467,197	0,0319
467,401	0,03223
467,605	0,0317
467,809	0,0327
468,013	0,03296
468,217	0,03326
468,421	0,03379
468,625	0,03362
468,829	0,03332
469,033	0,03348
469,236	0,0342
469,44	0,03371
469,644	0,03356
469,848	0,03397
470,052	0,03455
470,256	0,03406
470,46	0,03396
470,664	0,03425
470,867	0,03483
471,071	0,03505
471,275	0,03536
471,479	0,03532
471,683	0,03614
471,886	0,03724
472,09	0,03733
472,294	0,03698
472,497	0,03774
472,701	0,03782
472,905	0,03843
473,109	0,0387
473,312	0,03884
473,516	0,03947
473,719	0,03949
473,923	0,04012
474,127	0,04008
474,33	0,04028
474,534	0,04105
474,737	0,04154
474,941	0,04187
475,145	0,04139
475,348	0,04149
475,552	0,04201
475,755	0,04195
475,959	0,04249
476,162	0,04277
476,366	0,04273
476,569	0,04319
476,772	0,04333
476,976	0,04346
477,179	0,04389
477,383	0,04443
477,586	0,04474
477,789	0,0448
477,993	0,04525
478,196	0,0454
478,399	0,0454
478,603	0,0463
478,806	0,0466
479,009	0,0462
479,213	0,04626
479,416	0,04628
479,619	0,04676
479,822	0,0472
480,026	0,04786
480,229	0,04801
480,432	0,0487
480,635	0,04908
480,838	0,04922
481,041	0,04931
481,245	0,05015
481,448	0,05021
481,651	0,05095
481,854	0,05119
482,057	0,05145
482,26	0,05178
482,463	0,05194
482,666	0,05179
482,869	0,05195
483,072	0,05224
483,275	0,05291
483,478	0,05304
483,681	0,05414
483,884	0,05424
484,087	0,05479
484,29	0,05528
484,493	0,05551
484,696	0,0561
484,899	0,05687
485,102	0,05736
485,305	0,05753
485,508	0,05775
485,71	0,05855
485,913	0,05875
486,116	0,05914
486,319	0,05968
486,522	0,06005
486,725	0,0604
486,927	0,06099
487,13	0,0611
487,333	0,06191
487,536	0,06255
487,738	0,06316
487,941	0,06345
488,144	0,06393
488,346	0,06445
488,549	0,06451
488,752	0,06498
488,954	0,06559
489,157	0,06566
489,359	0,06623
489,562	0,0664
489,765	0,06656
489,967	0,06694
490,17	0,06738
490,372	0,06787
490,575	0,06807
490,777	0,06853
490,98	0,06862
491,182	0,06877
491,385	0,06956
491,587	0,06996
491,79	0,07042
491,992	0,07118
492,195	0,07145
492,397	0,07181
492,599	0,0722
492,802	0,07284
493,004	0,07347
493,207	0,074
493,409	0,07476
493,611	0,07504
493,814	0,07561
494,016	0,07576
494,218	0,07579
494,42	0,0763
494,623	0,07683
494,825	0,07735
495,027	0,07782
495,229	0,0783
495,432	0,07878
495,634	0,07956
495,836	0,08012
496,038	0,08034
496,24	0,08109
496,442	0,08171
496,645	0,08225
496,847	0,08268
497,049	0,08305
497,251	0,08366
497,453	0,08409
497,655	0,08482
497,857	0,08491
498,059	0,08545
498,261	0,08615
498,463	0,0869
498,665	0,0877
498,867	0,08831
499,069	0,08889
499,271	0,08918
499,473	0,08981
499,675	0,0904
499,877	0,09094
500,079	0,0915
500,281	0,09221
500,482	0,0928
500,684	0,0934
500,886	0,0939
501,088	0,09455
501,29	0,09532
501,492	0,09618
501,693	0,09688
501,895	0,0976
502,097	0,09816
502,299	0,09873
502,5	0,09899
502,702	0,09969
502,904	0,10043
503,106	0,10116
503,307	0,10165
503,509	0,10225
503,711	0,10301
503,912	0,10362
504,114	0,10415
504,315	0,10461
504,517	0,10555
504,719	0,10647
504,92	0,10681
505,122	0,10723
505,323	0,10778
505,525	0,10843
505,726	0,109
505,928	0,10946
506,129	0,11011
506,331	0,11085
506,532	0,11171
506,734	0,11217
506,935	0,11298
507,137	0,11365
507,338	0,11414
507,539	0,11483
507,741	0,1157
507,942	0,11645
508,143	0,11751
508,345	0,1181
508,546	0,11838
508,747	0,11919
508,949	0,12023
509,15	0,12064
509,351	0,1215
509,553	0,12212
509,754	0,12286
509,955	0,1234
510,156	0,12422
510,357	0,1247
510,559	0,12534
510,76	0,12633
510,961	0,12728
511,162	0,12759
511,363	0,12859
511,564	0,12937
511,766	0,13038
511,967	0,13116
512,168	0,13212
512,369	0,1327
512,57	0,13358
512,771	0,13451
512,972	0,13524
513,173	0,13582
513,374	0,1367
513,575	0,13728
513,776	0,13817
513,977	0,1387
514,178	0,1394
514,379	0,14001
514,58	0,14098
514,781	0,14177
514,981	0,14265
515,182	0,14341
515,383	0,14425
515,584	0,14519
515,785	0,14613
515,986	0,14679
516,187	0,14787
516,387	0,14866
516,588	0,14972
516,789	0,15045
516,99	0,15135
517,19	0,15217
517,391	0,15333
517,592	0,15421
517,793	0,15494
517,993	0,15583
518,194	0,15676
518,395	0,15758
518,595	0,15855
518,796	0,15935
518,996	0,16003
519,197	0,16087
519,398	0,16157
519,598	0,16233
519,799	0,16298
519,999	0,16389
520,2	0,16467
520,4	0,16535
520,601	0,1663
520,801	0,16715
521,002	0,16793
521,202	0,16901
521,403	0,1699
521,603	0,17078
521,804	0,17135
522,004	0,17236
522,204	0,17311
522,405	0,17384
522,605	0,17503
522,806	0,17563
523,006	0,17635
523,206	0,17721
523,407	0,17818
523,607	0,179
523,807	0,17984
524,007	0,18084
524,208	0,18178
524,408	0,18262
524,608	0,18361
524,808	0,18444
525,009	0,18545
525,209	0,18645
525,409	0,18744
525,609	0,18804
525,809	0,18902
526,009	0,18981
526,209	0,19057
526,41	0,19133
526,61	0,19239
526,81	0,19321
527,01	0,19402
527,21	0,19488
527,41	0,19566
527,61	0,19626
527,81	0,19717
528,01	0,1977
528,21	0,1986
528,41	0,19946
528,61	0,2001
528,81	0,20066
529,01	0,20132
529,21	0,2021
529,41	0,20283
529,609	0,20351
529,809	0,2043
530,009	0,20501
530,209	0,20596
530,409	0,2067
530,609	0,20748
530,808	0,20846
531,008	0,20927
531,208	0,21015
531,408	0,21077
531,608	0,21146
531,807	0,21206
532,007	0,21291
532,207	0,21355
532,406	0,21411
532,606	0,21493
532,806	0,21581
533,005	0,21631
533,205	0,21671
533,405	0,2173
533,604	0,21812
533,804	0,21883
534,003	0,21979
534,203	0,22022
534,403	0,22082
534,602	0,22149
534,802	0,22182
535,001	0,22232
535,201	0,22307
535,4	0,22405
535,6	0,22478
535,799	0,22545
535,998	0,22606
536,198	0,22662
536,397	0,22735
536,597	0,22832
536,796	0,2292
536,995	0,22998
537,195	0,23077
537,394	0,23128
537,594	0,23187
537,793	0,23254
537,992	0,23311
538,191	0,23375
538,391	0,23429
538,59	0,23479
538,789	0,23511
538,988	0,23537
539,188	0,23577
539,387	0,23631
539,586	0,23687
539,785	0,23741
539,984	0,23786
540,184	0,23824
540,383	0,23904
540,582	0,23956
540,781	0,24024
540,98	0,24099
541,179	0,24178
541,378	0,24269
541,577	0,24305
541,776	0,24364
541,975	0,24424
542,174	0,24482
542,373	0,24537
542,572	0,24567
542,771	0,24609
542,97	0,24649
543,169	0,24676
543,368	0,247
543,567	0,2472
543,766	0,24764
543,965	0,24819
544,164	0,24857
544,362	0,24903
544,561	0,24944
544,76	0,2499
544,959	0,25047
545,158	0,25103
545,356	0,25154
545,555	0,252
545,754	0,25252
545,953	0,25295
546,151	0,25304
546,35	0,25332
546,549	0,25368
546,748	0,25412
546,946	0,25443
547,145	0,25466
547,344	0,25494
547,542	0,25509
547,741	0,25534
547,939	0,25554
548,138	0,25572
548,337	0,25622
548,535	0,2564
548,734	0,25644
548,932	0,25659
549,131	0,25669
549,329	0,25705
549,528	0,2572
549,726	0,25762
549,925	0,25787
550,123	0,25821
550,322	0,25859
550,52	0,25869
550,718	0,25907
550,917	0,25952
551,115	0,25969
551,313	0,26012
551,512	0,26037
551,71	0,26071
551,908	0,2609
552,107	0,26118
552,305	0,2613
552,503	0,26153
552,702	0,26194
552,9	0,26213
553,098	0,26243
553,296	0,26286
553,495	0,26312
553,693	0,26342
553,891	0,26373
554,089	0,26396
554,287	0,26429
554,485	0,26462
554,683	0,26478
554,882	0,26492
555,08	0,26538
555,278	0,26566
555,476	0,26592
555,674	0,26627
555,872	0,26649
556,07	0,26656
556,268	0,267
556,466	0,2672
556,664	0,26755
556,862	0,26804
557,06	0,26857
557,258	0,26878
557,456	0,26888
557,654	0,26905
557,851	0,26911
558,049	0,26936
558,247	0,26989
558,445	0,27018
558,643	0,27039
558,841	0,27075
559,039	0,27113
559,236	0,27136
559,434	0,27167
559,632	0,27221
559,83	0,27274
560,027	0,27333
560,225	0,27374
560,423	0,27404
560,62	0,27445
560,818	0,27477
561,016	0,27511
561,213	0,27545
561,411	0,27577
561,609	0,27631
561,806	0,2766
562,004	0,27698
562,202	0,27725
562,399	0,27781
562,597	0,27833
562,794	0,27872
562,992	0,27951
563,189	0,28002
563,387	0,28045
563,584	0,28111
563,782	0,28149
563,979	0,28198
564,177	0,28254
564,374	0,28314
564,571	0,28358
564,769	0,28406
564,966	0,28446
565,164	0,28494
565,361	0,28535
565,558	0,28576
565,756	0,28623
565,953	0,28675
566,15	0,28737
566,347	0,28802
566,545	0,28863
566,742	0,28922
566,939	0,28975
567,136	0,29025
567,334	0,2907
567,531	0,29134
567,728	0,29214
567,925	0,29273
568,122	0,29345
568,319	0,29409
568,517	0,29458
568,714	0,29514
568,911	0,2959
569,108	0,29676
569,305	0,29763
569,502	0,29829
569,699	0,29915
569,896	0,29961
570,093	0,3003
570,29	0,30096
570,487	0,30173
570,684	0,30275
570,881	0,30366
571,078	0,30431
571,275	0,30496
571,472	0,30579
571,669	0,3066
571,866	0,30747
572,062	0,3084
572,259	0,30923
572,456	0,30996
572,653	0,31073
572,85	0,31128
573,047	0,31175
573,243	0,31249
573,44	0,31314
573,637	0,3138
573,834	0,31483
574,03	0,31559
574,227	0,31629
574,424	0,31729
574,62	0,31804
574,817	0,31883
575,014	0,31956
575,21	0,32044
575,407	0,32123
575,604	0,32226
575,8	0,32326
575,997	0,32407
576,193	0,32466
576,39	0,32569
576,586	0,32637
576,783	0,32742
576,979	0,32841
577,176	0,32938
577,372	0,33034
577,569	0,33123
577,765	0,33211
577,962	0,33291
578,158	0,3336
578,355	0,33466
578,551	0,33545
578,747	0,33638
578,944	0,33709
579,14	0,33777
579,336	0,33864
579,533	0,33951
579,729	0,34042
579,925	0,34113
580,122	0,3419
580,318	0,34287
580,514	0,34367
580,71	0,34452
580,906	0,34531
581,103	0,34633
581,299	0,34723
581,495	0,34786
581,691	0,34864
581,887	0,34945
582,084	0,35027
582,28	0,3511
582,476	0,35168
582,672	0,35238
582,868	0,35303
583,064	0,35382
583,26	0,35439
583,456	0,35496
583,652	0,35569
583,848	0,35638
584,044	0,35693
584,24	0,35746
584,436	0,35795
584,632	0,35826
584,828	0,35882
585,024	0,35916
585,22	0,35958
585,416	0,36
585,611	0,36041
585,807	0,36084
586,003	0,36125
586,199	0,36174
586,395	0,3622
586,591	0,36264
586,786	0,36326
586,982	0,36352
587,178	0,36398
587,374	0,36421
587,569	0,36458
587,765	0,36477
587,961	0,36506
588,156	0,36526
588,352	0,36525
588,548	0,3654
588,743	0,3654
588,939	0,36532
589,135	0,36546
589,33	0,36561
589,526	0,36552
589,721	0,36528
589,917	0,36526
590,112	0,36515
590,308	0,36488
590,503	0,36474
590,699	0,3644
590,894	0,3642
591,09	0,36423
591,285	0,36405
591,481	0,36356
591,676	0,36332
591,872	0,36315
592,067	0,36269
592,262	0,36227
592,458	0,36193
592,653	0,36159
592,848	0,36117
593,044	0,36076
593,239	0,36011
593,434	0,35933
593,629	0,35881
593,825	0,35815
594,02	0,35741
594,215	0,35685
594,41	0,35617
594,606	0,35544
594,801	0,35467
594,996	0,35406
595,191	0,35329
595,386	0,35255
595,581	0,35166
595,777	0,35083
595,972	0,35002
596,167	0,349
596,362	0,34798
596,557	0,34699
596,752	0,34606
596,947	0,34508
597,142	0,34389
597,337	0,34266
597,532	0,34149
597,727	0,34036
597,922	0,339
598,117	0,3377
598,312	0,33638
598,507	0,33501
598,701	0,33355
598,896	0,33197
599,091	0,33046
599,286	0,32899
599,481	0,32748
599,676	0,32599
599,87	0,3245
600,065	0,323
600,26	0,32136
600,455	0,31991
600,65	0,31835
600,844	0,31669
601,039	0,3152
601,234	0,31353
601,428	0,31191
601,623	0,31037
601,818	0,30873
602,012	0,30701
602,207	0,30542
602,402	0,30365
602,596	0,30184
602,791	0,30011
602,985	0,29842
603,18	0,29648
603,374	0,29459
603,569	0,29272
603,763	0,29081
603,958	0,28888
604,152	0,28706
604,347	0,28509
604,541	0,28329
604,736	0,28131
604,93	0,27931
605,125	0,2773
605,319	0,27546
605,513	0,27361
605,708	0,2718
605,902	0,26978
606,096	0,26774
606,291	0,26579
606,485	0,26374
606,679	0,2618
606,874	0,25989
607,068	0,25801
607,262	0,2561
607,456	0,2541
607,65	0,25213
607,845	0,25005
608,039	0,24798
608,233	0,24588
608,427	0,24384
608,621	0,24194
608,815	0,23993
609,01	0,23791
609,204	0,23589
609,398	0,234
609,592	0,23199
609,786	0,23003
609,98	0,228
610,174	0,22615
610,368	0,22429
610,562	0,22224
610,756	0,2201
610,95	0,2181
611,144	0,21627
611,338	0,21423
611,532	0,21201
611,726	0,20996
611,919	0,20791
612,113	0,20597
612,307	0,20387
612,501	0,20179
612,695	0,19977
612,889	0,19788
613,082	0,19593
613,276	0,19382
613,47	0,19188
613,664	0,18989
613,857	0,18782
614,051	0,18585
614,245	0,18384
614,439	0,18198
614,632	0,18027
614,826	0,17831
615,02	0,17644
615,213	0,1746
615,407	0,17282
615,6	0,17102
615,794	0,16945
615,988	0,16769
616,181	0,16582
616,375	0,16402
616,568	0,16227
616,762	0,16036
616,955	0,15865
617,149	0,15691
617,342	0,15498
617,536	0,15318
617,729	0,15155
617,923	0,14969
618,116	0,14807
618,309	0,14634
618,503	0,14473
618,696	0,14295
618,889	0,14121
619,083	0,13936
619,276	0,13768
619,469	0,13603
619,663	0,13432
619,856	0,13263
620,049	0,13105
620,242	0,12953
620,436	0,12797
620,629	0,12653
620,822	0,12506
621,015	0,12357
621,209	0,12228
621,402	0,12079
621,595	0,11951
621,788	0,11817
621,981	0,11669
622,174	0,11524
622,367	0,11366
622,56	0,11225
622,753	0,1107
622,946	0,10929
623,139	0,10791
623,332	0,10655
623,525	0,10525
623,718	0,10381
623,911	0,10256
624,104	0,10126
624,297	0,09999
624,49	0,09887
624,683	0,09767
624,876	0,09648
625,069	0,09525
625,262	0,09419
625,454	0,093
625,647	0,09179
625,84	0,09063
626,033	0,0894
626,226	0,08836
626,418	0,08725
626,611	0,08618
626,804	0,08509
626,997	0,08383
627,189	0,08271
627,382	0,08144
627,575	0,0804
627,767	0,07943
627,96	0,07843
628,153	0,0773
628,345	0,07616
628,538	0,07522
628,731	0,07417
628,923	0,07319
629,116	0,0724
629,308	0,07143
629,501	0,07052
629,693	0,06966
629,886	0,06867
630,078	0,06764
630,271	0,06684
630,463	0,06601
630,656	0,06505
630,848	0,06415
631,04	0,06324
631,233	0,06236
631,425	0,06167
631,617	0,0609
631,81	0,06006
632,002	0,05922
632,194	0,05852
632,387	0,05771
632,579	0,05691
632,771	0,05602
632,964	0,05535
633,156	0,05458
633,348	0,05381
633,54	0,05304
633,732	0,05229
633,925	0,05149
634,117	0,05097
634,309	0,05024
634,501	0,04958
634,693	0,04893
634,885	0,0484
635,077	0,04768
635,269	0,04709
635,462	0,04651
635,654	0,04588
635,846	0,04537
636,038	0,04476
636,23	0,04412
636,422	0,04353
636,614	0,04295
636,806	0,04243
636,997	0,04189
637,189	0,04129
637,381	0,04067
637,573	0,04009
637,765	0,03953
637,957	0,03888
638,149	0,03837
638,341	0,03779
638,532	0,03741
638,724	0,0369
638,916	0,03641
639,108	0,03587
639,299	0,03548
639,491	0,035
639,683	0,03463
639,875	0,03421
640,066	0,03382
640,258	0,03338
640,45	0,03284
640,641	0,03236
640,833	0,03188
641,025	0,03148
641,216	0,03106
641,408	0,03064
641,599	0,03029
641,791	0,02998
641,982	0,02958
642,174	0,02914
642,366	0,02882
642,557	0,02852
642,748	0,02802
642,94	0,0277
643,131	0,02731
643,323	0,02695
643,514	0,02661
643,706	0,02632
643,897	0,02595
644,088	0,02563
644,28	0,02543
644,471	0,02507
644,662	0,02473
644,854	0,02448
645,045	0,02419
645,236	0,02384
645,428	0,02349
645,619	0,02316
645,81	0,02282
646,001	0,02237
646,193	0,02209
646,384	0,02165
646,575	0,02136
646,766	0,02116
646,957	0,02089
647,148	0,02066
647,339	0,0204
647,531	0,02033
647,722	0,02006
647,913	0,01973
648,104	0,01953
648,295	0,01931
648,486	0,0191
648,677	0,0188
648,868	0,01858
649,059	0,01833
649,25	0,01807
649,441	0,01786
649,632	0,01755
649,823	0,01744
650,013	0,01726
650,204	0,0171
650,395	0,01683
650,586	0,01676
650,777	0,0166
650,968	0,0163
651,159	0,01616
651,349	0,01594
651,54	0,01574
651,731	0,0155
651,922	0,01529
652,112	0,01513
652,303	0,01493
652,494	0,01482
652,684	0,01451
652,875	0,01441
653,066	0,01433
653,256	0,0141
653,447	0,01393
653,638	0,01378
653,828	0,01363
654,019	0,01344
654,209	0,01331
654,4	0,01311
654,59	0,01298
654,781	0,01292
654,972	0,01274
655,162	0,01263
655,352	0,01246
655,543	0,01226
655,733	0,01214
655,924	0,01199
656,114	0,01182
656,305	0,01167
656,495	0,01156
656,685	0,01132
656,876	0,01117
657,066	0,01095
657,256	0,0108
657,447	0,0108
657,637	0,01075
657,827	0,0106
658,017	0,01058
658,208	0,01045
658,398	0,01027
658,588	0,01017
658,778	0,01018
658,968	0,01007
659,159	0,01005
659,349	0,00992
659,539	0,00972
659,729	0,00959
659,919	0,00959
660,109	0,00944
660,299	0,00952
660,489	0,00959
660,679	0,00947
660,869	0,00929
661,059	0,00932
661,249	0,00919
661,439	0,00911
661,629	0,00904
661,819	0,00896
662,009	0,00882
662,199	0,00869
662,389	0,00845
662,579	0,00829
662,769	0,00818
662,959	0,00815
663,149	0,00794
663,338	0,00784
663,528	0,00784
663,718	0,0078
663,908	0,00768
664,097	0,00751
664,287	0,00745
664,477	0,00737
664,667	0,00726
664,856	0,00721
665,046	0,00708
665,236	0,00699
665,425	0,00701
665,615	0,00691
665,805	0,00684
665,994	0,00696
666,184	0,00696
666,373	0,00695
666,563	0,00694
666,753	0,00693
666,942	0,00688
667,132	0,00675
667,321	0,00667
667,511	0,00661
667,7	0,00659
667,889	0,00642
668,079	0,00628
668,268	0,00633
668,458	0,0063
668,647	0,00629
668,836	0,00612
669,026	0,00607
669,215	0,00608
669,404	0,00615
669,594	0,0061
669,783	0,006
669,972	0,00611
670,162	0,00604
670,351	0,00584
670,54	0,00575
670,729	0,00557
670,919	0,00566
671,108	0,00552
671,297	0,00547
671,486	0,00541
671,675	0,00525
671,864	0,00525
672,053	0,00515
672,243	0,00516
672,432	0,00518
672,621	0,00519
672,81	0,00519
672,999	0,00513
673,188	0,00524
673,377	0,00526
673,566	0,00517
673,755	0,0052
673,944	0,00508
674,133	0,00506
674,322	0,00501
674,51	0,005
674,699	0,00492
674,888	0,00485
675,077	0,00484
675,266	0,00473
675,455	0,00474
675,644	0,0047
675,832	0,00462
676,021	0,00461
676,21	0,00459
676,399	0,00446
676,587	0,00442
676,776	0,00434
676,965	0,00434
677,153	0,00428
677,342	0,00426
677,531	0,00415
677,719	0,00411
677,908	0,00414
678,097	0,00413
678,285	0,00407
678,474	0,00405
678,662	0,00406
678,851	0,00411
679,039	0,004
679,228	0,00398
679,416	0,00402
679,605	0,00391
679,793	0,004
679,982	0,00387
680,17	0,00384
680,359	0,00383
680,547	0,00385
680,736	0,00389
680,924	0,00396
681,112	0,00403
681,301	0,00406
681,489	0,00403
681,677	0,00404
681,866	0,00391
682,054	0,00393
682,242	0,00392
682,43	0,00406
682,619	0,00393
682,807	0,00371
682,995	0,00359
683,183	0,00357
683,371	0,00359
683,559	0,00352
683,748	0,0035
683,936	0,00352
684,124	0,00357
684,312	0,00346
684,5	0,00322
684,688	0,00332
684,876	0,00338
685,064	0,00331
685,252	0,0032
685,44	0,00311
685,628	0,00318
685,816	0,00324
686,004	0,00324
686,192	0,00316
686,38	0,00322
686,568	0,00323
686,756	0,00323
686,944	0,00323
687,131	0,00328
687,319	0,00342
687,507	0,00334
687,695	0,00316
687,883	0,00307
688,07	0,00308
688,258	0,00313
688,446	0,00315
688,634	0,00321
688,821	0,0032
689,009	0,00319
689,197	0,0032
689,384	0,00314
689,572	0,0032
689,76	0,00334
689,947	0,00334
690,135	0,00327
690,323	0,00322
690,51	0,00309
690,698	0,00304
690,885	0,00306
691,073	0,00299
691,26	0,00294
691,448	0,0029
691,635	0,00291
691,823	0,00279
692,01	0,00276
692,197	0,00274
692,385	0,00274
692,572	0,0028
692,76	0,00276
692,947	0,00274
693,134	0,00279
693,322	0,00273
693,509	0,00262
693,696	0,00244
693,884	0,00236
694,071	0,00235
694,258	0,00234
694,445	0,0023
694,633	0,0023
694,82	0,00218
695,007	0,00215
695,194	0,00216
695,381	0,00218
695,568	0,00225
695,756	0,00238
695,943	0,00248
696,13	0,0025
696,317	0,0025
696,504	0,00252
696,691	0,0025
696,878	0,00261
697,065	0,00253
697,252	0,00248
697,439	0,00253
697,626	0,00242
697,813	0,00239
698	0,00233
698,187	0,00226
698,374	0,00231
698,561	0,00234
698,747	0,00227
698,934	0,00223
699,121	0,00227
699,308	0,00219
699,495	0,0021
699,682	0,00218
699,868	0,0021
700,055	0,0021
700,242	0,00208
700,429	0,0019
700,615	0,0018
700,802	0,00181
700,989	0,00176
701,175	0,00166
701,362	0,00175
701,549	0,00176
701,735	0,00173
701,922	0,00176
702,108	0,00175
702,295	0,00184
702,482	0,00194
702,668	0,00203
702,855	0,00207
703,041	0,00216
703,228	0,00228
703,414	0,00223
703,601	0,00222
703,787	0,00223
703,973	0,00214
704,16	0,00197
704,346	0,00199
704,533	0,002
704,719	0,00189
704,905	0,00177
705,092	0,00174
705,278	0,00169
705,464	0,00176
705,65	0,00179
705,837	0,00178
706,023	0,00186
706,209	0,00212
706,395	0,00205
706,582	0,00203
706,768	0,00203
706,954	0,0022
707,14	0,00221
707,326	0,00223
707,512	0,00214
707,698	0,00219
707,885	0,00214
708,071	0,00214
708,257	0,00199
708,443	0,00206
708,629	0,00209
708,815	0,00207
709,001	0,00199
709,187	0,00186
709,373	0,00184
709,559	0,0018
709,745	0,00172
709,93	0,00171
710,116	0,00171
710,302	0,00176
710,488	0,00178
710,674	0,00177
710,86	0,00179
711,046	0,00179
711,231	0,00187
711,417	0,00183
711,603	0,00182
711,789	0,00178
711,974	0,00187
712,16	0,00174
712,346	0,00169
712,532	0,00149
712,717	0,00141
712,903	0,00141
713,089	0,00141
713,274	0,00133
713,46	0,00128
713,645	0,00132
713,831	0,00137
714,016	0,00126
714,202	0,00139
714,388	0,00155
714,573	0,00154
714,759	0,00159
714,944	0,00154
715,129	0,00143
715,315	0,00146
715,5	0,00144
715,686	0,00143
715,871	0,00139
716,057	0,00144
716,242	0,00152
716,427	0,00139
716,613	0,00143
716,798	0,00137
716,983	0,00138
717,168	0,00147
717,354	0,00151
717,539	0,00155
717,724	0,00159
717,909	0,00161
718,095	0,00163
718,28	0,00151
718,465	0,00144
718,65	0,00151
718,835	0,00147
719,02	0,00143
719,206	0,00139
719,391	0,00139
719,576	0,00138
719,761	0,00134
719,946	0,00134
720,131	0,00125
720,316	0,00134
720,501	0,00137
720,686	0,00141
720,871	0,00152
721,056	0,00155
721,241	0,00151
721,426	0,00152
721,61	0,00156
721,795	0,0015
721,98	0,00146
722,165	0,00156
722,35	0,00155
722,535	0,00153
722,719	0,00152
722,904	0,00142
723,089	0,00139
723,274	0,00141
723,458	0,00133
723,643	0,00131
723,828	0,00129
724,013	0,00133
724,197	0,00128
724,382	0,0012
724,567	0,00114
724,751	0,0011
724,936	0,00113
725,12	0,00112
725,305	0,00121
725,489	0,00125
725,674	0,00115
725,859	0,00124
726,043	0,00127
726,228	0,00127
726,412	0,00121
726,596	0,00118
726,781	0,00127
726,965	0,00123
727,15	0,00132
727,334	0,00118
727,518	0,00112
727,703	0,00123
727,887	0,00114
728,072	0,00114
728,256	0,00112
728,44	0,00118
728,624	0,0013
728,809	0,00121
728,993	0,00125
729,177	0,00113
729,361	0,00123
729,546	0,00126
729,73	0,00129
729,914	0,00121
730,098	0,00123
730,282	0,00122
730,466	0,00116
730,65	0,00117
730,834	0,00117
731,019	0,00113
731,203	0,00111
731,387	0,00117
731,571	0,00103
731,755	0,00096
731,939	0,00099
732,123	0,0009
732,306	0,00092
732,49	0,00099
732,674	0,00093
732,858	0,00087
733,042	0,0009
733,226	0,00104
733,41	0,00103
733,594	0,00118
733,778	0,00128
733,961	0,00135
734,145	0,00132
734,329	0,00137
734,513	0,00141
734,696	0,00147
734,88	0,00152
735,064	0,00145
735,247	0,00132
735,431	0,0013
735,615	0,00121
735,798	0,00122
735,982	0,00126
736,166	0,00131
736,349	0,00123
736,533	0,00115
736,716	0,0011
736,9	0,00107
737,083	0,00109
737,267	0,00106
737,45	0,00095
737,634	0,00097
737,817	0,00091
738,001	0,00088
738,184	0,00082
738,368	0,00085
738,551	0,00086
738,734	0,00089
738,918	0,00098
739,101	0,00107
739,284	0,00111
739,468	0,00111
739,651	0,00118
739,834	0,00111
740,018	0,00096
740,201	0,00104
740,384	0,00097
740,567	0,00103
740,75	0,00104
740,934	0,00095
741,117	0,00084
741,3	0,00091
741,483	0,00098
741,666	0,00087
741,849	0,0009
742,032	0,00103
742,215	0,00091
742,399	0,00094
742,582	0,00085
742,765	0,00084
742,948	0,00089
743,131	0,00103
743,314	0,0009
743,496	0,00079
743,679	0,00093
743,862	0,00094
744,045	0,00093
744,228	0,00096
744,411	0,00099
744,594	0,00097
744,777	0,00095
744,959	0,00091
745,142	0,00088
745,325	0,00105
745,508	0,00103
745,691	0,00114
745,873	0,00107
746,056	0,0011
746,239	0,0011
746,421	0,00116
746,604	0,00118
746,787	0,00119
746,969	0,00117
747,152	0,0011
747,335	0,00093
747,517	0,00097
747,7	0,00087
747,882	0,00092
748,065	0,00083
748,247	0,00089
748,43	0,00081
748,612	0,00082
748,795	0,00083
748,977	0,00081
749,16	0,00081
749,342	0,0009
749,524	0,00095
749,707	0,00096
749,889	0,00096
750,072	0,00098
750,254	0,00098
750,436	0,00091
750,619	0,00088
750,801	0,00077
750,983	0,00077
751,165	0,00081
751,348	0,00083
751,53	0,00081
751,712	0,00069
751,894	0,00065
752,076	0,00084
752,259	0,00076
752,441	0,00076
752,623	0,00084
752,805	0,00081
752,987	0,00082
753,169	0,0008
753,351	0,00076
753,533	0,00081
753,715	0,00083
753,897	0,0008
754,079	0,00071
754,261	0,00071
754,443	0,00073
754,625	0,00073
754,807	0,00086
754,989	0,0009
755,171	0,00089
755,353	0,00084
755,534	0,00069
755,716	0,00068
755,898	0,00066
756,08	0,0006
756,262	0,00056
756,443	0,00046
756,625	0,00049
756,807	0,00038
756,989	0,00037
757,17	0,00035
757,352	0,00042
757,534	0,00054
757,715	0,00051
757,897	0,0006
758,079	0,00062
758,26	0,00074
758,442	0,00089
758,623	0,00074
758,805	0,00078
758,987	0,00083
759,168	0,00073
759,35	0,00069
759,531	0,00071
759,713	0,00067
759,894	0,00058
760,075	0,00051
760,257	0,00036
760,438	0,00041
760,62	0,00041
760,801	0,00041
760,982	0,00025
761,164	0,0003
761,345	0,00028
761,526	0,00024
761,708	0,00034
761,889	0,00039
762,07	0,00043
762,251	0,00056
762,433	0,00042
762,614	0,00055
762,795	0,00061
762,976	0,00071
763,157	0,00081
763,338	0,00078
763,52	0,00072
763,701	0,00062
763,882	0,00063
764,063	0,00065
764,244	0,00065
764,425	0,00077
764,606	0,00055
764,787	0,00048
764,968	0,00045
765,149	0,00032
765,33	0,00039
765,511	0,00047
765,692	0,00036
765,873	0,00037
766,053	0,00026
766,234	0,00025
766,415	0,00017
766,596	0,00018
766,777	0,00013
766,958	0,00001
767,138	0,00011
767,319	0,00007
767,5	0,00007
767,681	0,00014
767,861	0,00023
768,042	0,00031
768,223	0,00031
768,403	0,00028
768,584	0,00043
768,765	0,0005
768,945	0,00046
769,126	0,00047
769,307	0,0005
769,487	0,0005
769,668	0,00058
769,848	0,00045
770,029	0,00041
770,209	0,00034
770,39	0,00033
770,57	0,00034
770,751	0,00027
770,931	0,00039
771,111	0,0003
771,292	0,0003
771,472	0,00024
771,653	0,00022
771,833	0,00013
772,013	0,00015
772,194	0,00017
772,374	0,00017
772,554	0,00007
772,734	0,00011
772,915	0,00017
773,095	0,00023
773,275	0,00018
773,455	0,00017
773,635	0,00006
773,816	0,00018
773,996	0,0003
774,176	0,00034
774,356	0,00032
774,536	0,00041
774,716	0,00043
774,896	0,00034
775,076	0,00023
775,256	0,0003
775,436	0,0003
775,616	0,00043
775,796	0,00049
775,976	0,00042
776,156	0,00035
776,336	0,00043
776,516	0,00042
776,696	0,00037
776,876	0,00041
777,056	0,00041
777,235	0,00043
777,415	0,0005
777,595	0,00036
777,775	0,00022
777,955	0,00017
778,134	0,00023
778,314	0,00023
778,494	0,00019
778,674	0,00026
778,853	0,00021
779,033	0,00025
779,213	0,0001
779,392	0,00008
779,572	0,00024
779,751	0,00028
779,931	0,00036
780,111	0,00037
780,29	0,00024
780,47	0,00022
780,649	0,00019
780,829	0,00031
781,008	0,00036
781,188	0,00047
781,367	0,00051
781,546	0,00045
781,726	0,0004
781,905	0,00032
782,085	0,00034
782,264	0,00038
782,443	0,0004
782,623	0,00036
782,802	0,00031
782,981	0,00028
783,161	0,00027
783,34	0,0002
783,519	0,00019
783,698	0,00027
783,878	0,00031
784,057	0,00021
784,236	0,00028
784,415	0,00034
784,594	0,00042
784,773	0,00041
784,952	0,00043
785,132	0,00036
785,311	0,00048
785,49	0,00046
785,669	0,00033
785,848	0,00026
786,027	0,00027
786,206	0,00029
786,385	0,0002
786,564	0,00015
786,743	0,00017
786,922	0,00021
787,1	0,00022
787,279	0,00014
787,458	0,00014
787,637	0,00027
787,816	0,00035
787,995	0,00031
788,174	0,00022
788,352	0,00026
788,531	0,00023
788,71	0,00026
788,889	0,00011
789,067	0,00008
789,246	-0,00005
789,425	0,00007
789,603	0,00004
789,782	-0,00003
789,961	0,00009
790,139	0,00032
790,318	0,00029
790,496	0,00037
790,675	0,00043
790,853	0,00051
791,032	0,00052
791,211	0,0007
791,389	0,00061
791,568	0,00073
791,746	0,00081
791,924	0,00082
792,103	0,00063
792,281	0,00057
792,46	0,00051
792,638	0,0006
792,816	0,00064
792,995	0,00076
793,173	0,00072
793,351	0,00066
793,53	0,00065
793,708	0,00062
793,886	0,00051
794,064	0,00057
794,243	0,0007
794,421	0,00074
794,599	0,0005
794,777	0,0004
794,955	0,00027
795,133	0,00025
795,312	0,00027
795,49	0,00013
795,668	0,00009
795,846	0,00012
796,024	0,00007
796,202	-0,00003
796,38	-0,00009
796,558	-0,00011
796,736	-0,00012
796,914	-0,00003
797,092	-0,00008
797,27	-0,00005
797,448	0
797,626	-0,00005
797,803	-0,00015
797,981	-0,00023
798,159	-0,00016
798,337	-0,0001
798,515	-0,00003
798,693	-0,00001
798,87	-0,00016
799,048	-0,00017
799,226	-0,00012
799,404	-0,00004
799,581	-0,00002
799,759	-0,00004
799,937	0,00008
800,114	0,00008
800,292	0,00001
800,469	0,00008
800,647	0,00002
800,825	0,00002
801,002	0,0001
801,18	-0,00007
801,357	-0,00019
801,535	-0,00012
801,712	-0,00008
801,89	-0,00014
802,067	-0,00025
802,245	-0,00022
802,422	-0,00048
802,6	-0,00032
802,777	-0,00022
802,954	-0,00028
803,132	-0,00012
803,309	-0,00007
803,486	-0,00014
803,664	-0,00006
803,841	0,00005
804,018	0,00015
804,195	0,00016
804,373	0,00026
804,55	0,00029
804,727	0,00028
804,904	0,00034
805,081	0,00032
805,259	0,00024
805,436	0,00014
805,613	0,00017
805,79	0,00008
805,967	0,00006
806,144	0,00001
806,321	0
806,498	0,00007
806,675	0,00011
806,852	0,0001
807,029	0,00014
807,206	0,00019
807,383	0,00039
807,56	0,00044
807,737	0,00044
807,914	0,00049
808,091	0,00057
808,268	0,00064
808,444	0,00055
808,621	0,00052
808,798	0,0003
808,975	0,00034
809,152	0,00026
809,328	0,00009
809,505	-0,00002
809,682	-0,0001
809,858	-0,00012
810,035	-0,00025
810,212	-0,00033
810,388	-0,00035
810,565	-0,00009
810,742	0,00009
810,918	-0,00007
811,095	-0,00004
811,271	0,00003
811,448	-0,00003
811,625	0,00009
811,801	-0,00009
811,978	-0,00002
812,154	-0,00012
812,33	-0,00007
812,507	-0,00024
812,683	-0,00031
812,86	-0,0002
813,036	-0,00008
813,212	-0,00004
813,389	-0,00006
813,565	-0,00019
813,741	0
813,918	-0,00007
814,094	0,00013
814,27	-0,00001
814,447	-0,00015
814,623	-0,00014
814,799	-0,00029
814,975	-0,00045
815,151	-0,00047
815,328	-0,00036
815,504	-0,00028
815,68	-0,00035
815,856	-0,00026
816,032	-0,00028
816,208	-0,00024
816,384	-0,00026
816,56	-0,00016
816,736	-0,00014
816,912	0,00002
817,088	0,00005
817,264	0,00006
817,44	-0,00001
817,616	-0
817,792	-0,00016
817,968	-0,00015
818,144	0,00007
818,32	0,00012
818,495	0,00001
818,671	0,00004
818,847	-0,00006
819,023	-0,00008
819,199	-0,00005
819,374	0,00011
819,55	0,00006
819,726	0,00023
819,902	0,00025
820,077	0,00006
820,253	-0
820,429	0,00003
820,604	0,00014
820,78	0,00019
820,956	0,00026
821,131	0,00008
821,307	0,00007
821,482	0,00017
821,658	0,00015
821,833	-0,00013
822,009	-0,0002
822,184	-0,00018
822,36	-0,00029
822,535	-0,00031
822,711	-0,00036
822,886	-0,00043
823,061	-0,0004
823,237	-0,00034
823,412	-0,00032
823,587	-0,00042
823,763	-0,00025
823,938	-0,0002
824,113	-0,00026
824,289	-0,00007
824,464	-0,00005
824,639	0,00002
824,814	-0,00005
824,99	0,00007
825,165	-0,0001
825,34	-0,00006
825,515	0,00011
825,69	0,00011
825,865	0,00013
826,04	0,00032
826,215	0,0003
826,39	0,00053
826,566	0,00047
826,741	0,00046
826,916	0,00038
827,091	0,00037
827,265	0,00035
827,44	0,00025
827,615	0,00037
827,79	0,00034
827,965	0,00027
828,14	0,00031
828,315	0,00016
828,49	0,00027
828,665	0,0004
828,839	0,00016
829,014	0,00023
829,189	0,00018
829,364	0,00023
829,538	0,00032
829,713	0,00024
829,888	0,00028
830,063	0,00015
830,237	-0,00024
830,412	-0,00039
830,587	-0,00036
830,761	-0,00013
830,936	-0,00017
831,11	-0,00025
831,285	-0,00029
831,459	-0,00035
831,634	-0,00025
831,809	-0,00015
831,983	-0,00008
832,157	0,00019
832,332	0,00024
832,506	0,00033
832,681	0,00022
832,855	0,00019
833,03	0,00015
833,204	0,00008
833,378	-0,00007
833,553	-0,00008
833,727	-0,00003
833,901	0,00004
834,076	0,00016
834,25	0,00008
834,424	0
834,598	0,00026
834,773	0,00031
834,947	0,00044
835,121	0,00049
835,295	0,00044
835,469	0,00039
835,643	0,00004
835,817	-0,00008
835,991	-0,00037
836,166	-0,00033
836,34	-0,0003
836,514	-0,00066
836,688	-0,00064
836,862	-0,00058
837,036	-0,00062
837,21	-0,00043
837,384	-0,00032
837,557	-0,00016
837,731	-0,00007
837,905	0,00011
838,079	0,00001
838,253	-0,00019
838,427	-0,00003
838,601	-0,00024
838,774	-0,00047
838,948	-0,00053
839,122	-0,00058
839,296	-0,00047
839,469	-0,00037
839,643	-0,00052
839,817	-0,00067
839,991	-0,00067
840,164	-0,0005
840,338	-0,00057
840,512	-0,00043
840,685	-0,00015
840,859	-0,00005
841,032	-0,00011
841,206	-0,00032
841,379	-0,00054
841,553	-0,00037
841,726	-0,00022
841,9	-0,00005
842,073	-0,00001
842,247	-0,00004
842,42	-0,00009
842,594	-0,00025
842,767	-0,0003
842,94	-0,00024
843,114	0,00011
843,287	0,00038
843,46	0,00013
843,634	-0,00001
843,807	0
843,98	-0,00003
844,154	-0,00001
844,327	0,00002
844,5	0,00007
844,673	0,00019
844,846	0,00005
845,02	-0,00026
845,193	-0,00068
845,366	-0,00057
845,539	-0,00057
845,712	-0,0006
845,885	-0,0008
846,058	-0,00078
846,231	-0,0007
846,404	-0,00081
846,577	-0,00075
846,75	-0,00047
846,923	-0,0003
847,096	-0,00006
847,269	0,00008
847,442	0,00026
847,615	0,00019
847,788	0,0002
847,961	0,0004
848,133	0,0007
848,306	0,00068
848,479	0,00062
848,652	0,00063
848,825	0,00041
848,997	0,00053
849,17	0,00033
849,343	0,00019
849,515	0,0002
849,688	0,00033
849,861	0,00039
850,033	0,00015
850,206	0,00017
850,379	0,00003
850,551	-0,00004
850,724	0,00002
850,896	-0,00025
851,069	-0,00002
851,241	-0,00009
851,414	0,00015
851,586	0,00001
851,759	-0,00022
851,931	-0,00018
852,104	-0,00017
852,276	-0,00012
852,449	-0,00019
852,621	-0,00029
852,793	-0,00026
852,966	-0,00034
853,138	0,00002
853,31	-0,00013
853,483	-0,00003
853,655	0,00002
853,827	-0,00022
853,999	-0,00024
854,172	-0,00006
854,344	-0,00004
854,516	0,00012
854,688	0,00016
854,86	-0,00007
855,032	-0,00022
855,204	-0,00034
855,377	-0,00042
855,549	-0,00053
855,721	-0,00058
855,893	-0,00036
856,065	-0,00072
856,237	-0,00093
856,409	-0,00109
856,581	-0,00094
856,753	-0,00054
856,924	-0,00042
857,096	-0,00015
857,268	0,00003
857,44	0,00022
857,612	0,00039
857,784	-0,00007
857,956	0,00027
858,127	0,00051
858,299	0,00069
858,471	0,00055
858,643	0,00045
858,814	0,00038
858,986	0,00009
859,158	0
859,33	0,00004
859,501	-0,0002
859,673	0,00009
859,844	0,00008
860,016	0,00004
860,188	-0,00001
860,359	0
860,531	-0,00023
860,702	-0,00049
860,874	-0,00047
861,045	-0,0004
861,217	-0,00056
861,388	-0,00035
861,56	-0,00026
861,731	-0,00057
861,902	-0,00057
862,074	-0,0006
862,245	-0,00044
862,417	-0,00042
862,588	-0,00021
862,759	-0,00025
862,931	-0,00026
863,102	-0,00013
863,273	-0,00019
863,444	-0,00036
863,616	-0,00023
863,787	-0,00027
863,958	-0,00031
864,129	-0,00031
864,3	-0,00036
864,471	-0,00037
864,642	-0,00009
864,814	-0,00026
864,985	-0,00047
865,156	-0,00041
865,327	-0,00042
865,498	-0,00015
865,669	-0,00029
865,84	-0,00031
866,011	-0,00028
866,182	0,00002
866,353	-0,00002
866,523	-0,00009
866,694	0,00024
866,865	0,00035
867,036	0,00034
867,207	0,00033
867,378	0,00003
867,549	0,00001
867,719	-0,00005
867,89	-0,00031
868,061	-0,00034
868,232	-0,00045
868,402	-0,00071
868,573	-0,001
868,744	-0,00078
868,914	-0,00073
869,085	-0,00075
869,256	-0,00072
869,426	-0,00086
869,597	-0,00076
869,767	-0,00043
869,938	-0,00027
870,108	-0,0003
870,279	-0,00015
870,449	-0,00036
870,62	-0,00069
870,79	-0,00084
870,961	-0,00047
871,131	-0,00054
871,302	0,00008
871,472	0,00003
871,642	-0,00012
871,813	-0,00045
871,983	-0,00043
872,153	-0,00054
872,324	-0,00035
872,494	-0,00021
872,664	-0,00031
872,835	-0,00027
873,005	-0,00001
873,175	-0,00059
873,345	-0,00072
873,515	-0,00085
873,685	-0,00099
873,856	-0,00094
874,026	-0,00085
874,196	-0,00087
874,366	-0,00109
874,536	-0,00087
874,706	-0,00152
874,876	-0,0018
875,046	-0,00169
875,216	-0,00138
875,386	-0,00102
875,556	-0,00066
875,726	-0,00084
875,896	-0,0009
876,066	-0,00071
876,236	-0,00099
876,405	-0,00077
876,575	-0,00049
876,745	-0,00038
876,915	-0,00006
877,085	-0,00007
877,254	-0,0002
877,424	-0,00025
877,594	-0,00029
877,764	-0,0002
877,933	-0,00041
878,103	-0,00005
878,273	-0,00015
878,442	-0,0002
878,612	-0,00015
878,781	-0,00006
878,951	-0,00007
879,121	-0,00038
879,29	-0,0006
879,46	-0,00019
879,629	-0,00008
879,799	0,00014
879,968	0,00056
880,138	0,00054
880,307	0,00073
880,476	0,00092
880,646	0,00061
880,815	0,00051
880,985	0,00045
881,154	0,00076
881,323	0,00065
881,493	0,00061
881,662	0,00029
881,831	0,00012
882	-0,00013
882,17	-0,00006
882,339	-0,00047
882,508	-0,00038
882,677	-0,00032
882,846	-0,00002
883,016	-0,00005
883,185	0,00001
883,354	-0,00014
883,523	0,00014
883,692	0,00002
883,861	0,00013
884,03	-0,00024
884,199	0,00002
884,368	0,00008
884,537	-0,00013
884,706	-0,00025
884,875	-0,00067
885,044	-0,00061
885,213	-0,00023
885,382	-0,0004
885,55	-0,00065
885,719	-0,00048
885,888	-0,00025
886,057	-0,00052
886,226	-0,00075
886,395	-0,00036
886,563	-0,00023
886,732	0,00016
886,901	0,00009
887,069	-0,00019
887,238	0,0001
887,407	0,00051
887,575	0,00065
887,744	0,00078
887,913	0,00082
888,081	0,00093
888,25	0,00096
888,418	0,00104
888,587	0,00082
888,755	0,00058
888,924	0,00064
889,092	0,0004
889,261	0,00013
889,429	-0,00011
889,598	-0,00021
889,766	0,00017
889,935	0,00038
890,103	0,00007
890,271	0,00003
890,44	-0,00005
890,608	-0,00006
890,776	-0,00006
890,944	0,00013
891,113	0,00052
891,281	0,0005
891,449	0,00044
891,617	0,00009
891,786	-0,00017
891,954	-0,00007
892,122	0,00028
892,29	0,00069
892,458	0,00066
892,626	0,00082
892,794	0,00081
892,962	0,00062
893,13	0,00078
893,298	0,00099
893,466	0,0014
