Data from Chemiepractica_Absorbance__13__11-34-53-062.txt Node

Date: Mon Dec 09 11:34:53 CET 2024
User: r0948668
Spectrometer: USB4F07138
Trigger mode: 4
Integration Time (sec): 6,000000E-3
Scans to average: 20
Electric dark correction enabled: true
Nonlinearity correction enabled: false
Boxcar width: 5
XAxis mode: Wavelengths
Number of Pixels in Spectrum: 3648
>>>>>Begin Spectral Data<<<<<
176,779	-0,62245
176,999	-1,49535
177,218	-0,78503
177,438	-0
177,658	-0
177,878	-0
178,097	0,2894
178,317	0,07228
178,537	0,06613
178,757	-0,04295
178,976	-0,06355
179,196	0,5784
179,416	0,18467
179,635	-0,12364
179,855	0,02473
180,075	0,05632
180,294	-0,02867
180,514	-0,03052
180,734	0,00629
180,953	0,00161
181,173	0,01159
181,392	-0,00576
181,612	-0,00258
181,832	0,01261
182,051	0,01173
182,271	0,00666
182,49	0,01008
182,71	0,02817
182,929	0,03454
183,149	0,03021
183,368	0,04716
183,588	0,03989
183,807	0,05303
184,027	0,06204
184,246	0,05293
184,466	0,06634
184,685	0,07194
184,905	0,06535
185,124	0,07076
185,344	0,08073
185,563	0,08296
185,782	0,07966
186,002	0,08765
186,221	0,07799
186,44	0,06635
186,66	0,06445
186,879	0,07257
187,099	0,05553
187,318	0,04911
187,537	0,03848
187,756	0,0446
187,976	0,03029
188,195	0,01924
188,414	0,02813
188,634	0,04218
188,853	0,0434
189,072	0,04396
189,291	0,0166
189,511	0,0363
189,73	0,04142
189,949	0,05611
190,168	0,05275
190,387	0,08228
190,607	0,07202
190,826	0,05754
191,045	0,04609
191,264	0,05096
191,483	0,04003
191,702	0,04529
191,921	0,04499
192,141	0,05255
192,36	0,03681
192,579	0,03174
192,798	0,00695
193,017	0,00774
193,236	0,02603
193,455	0,03028
193,674	0,02983
193,893	0,03425
194,112	0,04647
194,331	0,03754
194,55	0,02556
194,769	0,02324
194,988	0,01765
195,207	0,02822
195,426	0,03807
195,645	0,02789
195,864	0,03127
196,083	0,02511
196,302	0,02644
196,521	0,02361
196,739	0,02108
196,958	0,01627
197,177	0,02241
197,396	0,03256
197,615	0,03081
197,834	0,01216
198,053	0,00373
198,271	-0,00052
198,49	0,01059
198,709	0,02342
198,928	0,02992
199,147	0,03172
199,365	0,04811
199,584	0,04381
199,803	0,0318
200,022	0,02948
200,24	0,03932
200,459	0,04443
200,678	0,04747
200,897	0,03853
201,115	0,02181
201,334	0,01688
201,553	0,02004
201,771	0,01691
201,99	0,01331
202,209	0,03753
202,427	0,03932
202,646	0,04718
202,864	0,0495
203,083	0,04356
203,302	0,05579
203,52	0,06749
203,739	0,07574
203,957	0,09065
204,176	0,07507
204,394	0,08933
204,613	0,07876
204,831	0,08544
205,05	0,08745
205,268	0,09263
205,487	0,09259
205,705	0,07972
205,924	0,08166
206,142	0,08092
206,361	0,06418
206,579	0,06469
206,798	0,05283
207,016	0,04033
207,234	0,04267
207,453	0,05107
207,671	0,05841
207,89	0,06515
208,108	0,07019
208,326	0,05553
208,545	0,04408
208,763	0,04238
208,981	0,0477
209,2	0,04763
209,418	0,0548
209,636	0,04182
209,855	0,02845
210,073	0,01452
210,291	0,00366
210,509	-0,01344
210,728	-0,00734
210,946	-0,00414
211,164	-0,00577
211,382	0,00067
211,6	0,01626
211,819	0,01454
212,037	0,01694
212,255	0,00852
212,473	0,0075
212,691	0,01451
212,909	0,03565
213,128	0,02686
213,346	0,02695
213,564	0,02917
213,782	0,02073
214	0,02143
214,218	0,02203
214,436	0,02785
214,654	0,02615
214,872	0,02159
215,09	0,01815
215,308	0,02222
215,526	0,03698
215,744	0,03659
215,962	0,04306
216,18	0,02999
216,398	0,02904
216,616	0,02635
216,834	0,02243
217,052	0,04202
217,27	0,038
217,488	0,04487
217,706	0,04019
217,924	0,03801
218,142	0,03795
218,36	0,03578
218,578	0,06297
218,795	0,04893
219,013	0,0587
219,231	0,06154
219,449	0,05173
219,667	0,06416
219,885	0,05556
220,102	0,05897
220,32	0,05686
220,538	0,0625
220,756	0,0638
220,973	0,05765
221,191	0,05716
221,409	0,05334
221,627	0,05071
221,844	0,04952
222,062	0,04997
222,28	0,05173
222,497	0,03771
222,715	0,02844
222,933	0,02205
223,15	0,00956
223,368	0,00104
223,586	0,01578
223,803	0,01675
224,021	0,00698
224,239	0,00498
224,456	-0,00405
224,674	-0,0058
224,891	0,00535
225,109	0,00675
225,326	0,00653
225,544	0,02081
225,762	0,02618
225,979	0,02362
226,197	0,0281
226,414	0,03048
226,632	0,04087
226,849	0,03364
227,066	0,05737
227,284	0,03994
227,501	0,05318
227,719	0,0607
227,936	0,06546
228,154	0,06694
228,371	0,05745
228,588	0,05267
228,806	0,05527
229,023	0,05371
229,241	0,07413
229,458	0,0633
229,675	0,06513
229,893	0,05957
230,11	0,05549
230,327	0,03191
230,545	0,03305
230,762	0,03397
230,979	0,03755
231,196	0,03698
231,414	0,02824
231,631	0,01184
231,848	-0,00519
232,065	-0,00073
232,283	0,00007
232,5	-0,00721
232,717	0,00318
232,934	-0,00929
233,151	-0,00436
233,368	-0,00598
233,586	-0,00778
233,803	-0,01566
234,02	-0,00321
234,237	0,00877
234,454	0,01397
234,671	0,03217
234,888	0,04343
235,105	0,05149
235,322	0,07216
235,54	0,07059
235,757	0,08077
235,974	0,08465
236,191	0,09934
236,408	0,09599
236,625	0,089
236,842	0,08212
237,059	0,06795
237,276	0,04632
237,493	0,0482
237,71	0,04399
237,926	0,03847
238,143	0,01687
238,36	0,01622
238,577	0,01144
238,794	0,00601
239,011	0,01055
239,228	0,00446
239,445	0,00082
239,662	0,02501
239,878	0,02452
240,095	0,03032
240,312	0,03213
240,529	0,03362
240,746	0,03101
240,963	0,02791
241,179	0,02768
241,396	0,0388
241,613	0,04487
241,83	0,04533
242,046	0,03934
242,263	0,04421
242,48	0,03352
242,697	0,03771
242,913	0,04404
243,13	0,0349
243,347	0,04776
243,563	0,05466
243,78	0,04761
243,997	0,06155
244,213	0,05982
244,43	0,06528
244,646	0,05642
244,863	0,05721
245,08	0,05798
245,296	0,06605
245,513	0,07135
245,729	0,06827
245,946	0,06566
246,162	0,06549
246,379	0,05428
246,595	0,05318
246,812	0,04348
247,028	0,04946
247,245	0,05216
247,461	0,05471
247,678	0,03844
247,894	0,05439
248,111	0,04823
248,327	0,04736
248,544	0,03814
248,76	0,03871
248,976	0,0404
249,193	0,03824
249,409	0,02826
249,626	0,02161
249,842	0,02175
250,058	0,02595
250,275	0,02129
250,491	0,02734
250,707	0,03973
250,924	0,05232
251,14	0,04369
251,356	0,05341
251,572	0,0468
251,789	0,05487
252,005	0,06451
252,221	0,06275
252,437	0,0539
252,654	0,04465
252,87	0,02915
253,086	0,02318
253,302	0,00928
253,518	0,02672
253,735	0,01938
253,951	0,02536
254,167	0,01845
254,383	0,01831
254,599	0,00518
254,815	0,02757
255,031	0,01341
255,247	0,01304
255,463	0,00558
255,68	0,0244
255,896	0,01993
256,112	0,01727
256,328	0,02218
256,544	0,03478
256,76	0,03613
256,976	0,04552
257,192	0,03622
257,408	0,05762
257,624	0,06542
257,84	0,07932
258,056	0,06842
258,272	0,07534
258,487	0,06679
258,703	0,06577
258,919	0,0647
259,135	0,05665
259,351	0,06134
259,567	0,05682
259,783	0,05217
259,999	0,06419
260,215	0,04918
260,43	0,04462
260,646	0,03146
260,862	0,0462
261,078	0,04332
261,294	0,02396
261,509	0,02473
261,725	0,02151
261,941	0,02413
262,157	0,0214
262,372	0,0053
262,588	0,00259
262,804	0,01527
263,019	0,02057
263,235	0,01405
263,451	0,02184
263,667	0,04254
263,882	0,0508
264,098	0,05375
264,313	0,0542
264,529	0,05324
264,745	0,06326
264,96	0,07286
265,176	0,0774
265,391	0,06534
265,607	0,07705
265,823	0,06873
266,038	0,06112
266,254	0,05553
266,469	0,06349
266,685	0,0596
266,9	0,0593
267,116	0,06366
267,331	0,06843
267,547	0,05837
267,762	0,06278
267,978	0,05231
268,193	0,05143
268,408	0,06012
268,624	0,06408
268,839	0,05463
269,055	0,05063
269,27	0,05591
269,485	0,05061
269,701	0,03772
269,916	0,03143
270,132	0,03874
270,347	0,04506
270,562	0,04117
270,777	0,03112
270,993	0,02609
271,208	0,02219
271,423	0,03259
271,639	0,04323
271,854	0,03274
272,069	0,03423
272,284	0,03968
272,5	0,03522
272,715	0,02678
272,93	0,03443
273,145	0,0291
273,36	0,03798
273,576	0,04223
273,791	0,03657
274,006	0,02682
274,221	0,03952
274,436	0,04458
274,651	0,05104
274,866	0,05421
275,081	0,06881
275,296	0,06411
275,512	0,07339
275,727	0,07282
275,942	0,07357
276,157	0,06779
276,372	0,05998
276,587	0,06629
276,802	0,06849
277,017	0,06566
277,232	0,06961
277,447	0,06091
277,662	0,06359
277,877	0,05666
278,092	0,05261
278,306	0,05601
278,521	0,06945
278,736	0,07529
278,951	0,06958
279,166	0,06176
279,381	0,05521
279,596	0,03953
279,811	0,0399
280,025	0,03065
280,24	0,02834
280,455	0,02658
280,67	0,02438
280,885	0,01239
281,099	0,0076
281,314	0,00533
281,529	0,01466
281,744	0,02284
281,959	0,03115
282,173	0,03372
282,388	0,04713
282,603	0,04818
282,817	0,04692
283,032	0,04755
283,247	0,05213
283,461	0,0492
283,676	0,04535
283,891	0,04079
284,105	0,04263
284,32	0,04448
284,535	0,045
284,749	0,04646
284,964	0,06519
285,178	0,06477
285,393	0,06535
285,607	0,06336
285,822	0,07225
286,036	0,08043
286,251	0,07568
286,465	0,07269
286,68	0,07285
286,894	0,07444
287,109	0,0692
287,323	0,05167
287,538	0,05375
287,752	0,03941
287,967	0,03588
288,181	0,02738
288,396	0,02767
288,61	0,04592
288,824	0,04888
289,039	0,0548
289,253	0,05291
289,467	0,0534
289,682	0,05352
289,896	0,05671
290,11	0,06121
290,325	0,05932
290,539	0,05198
290,753	0,04935
290,968	0,02713
291,182	0,01794
291,396	0,00889
291,61	0,00553
291,825	0,01065
292,039	0,0136
292,253	0,01263
292,467	0,01238
292,681	0,02019
292,896	0,02639
293,11	0,00846
293,324	0,02043
293,538	0,02652
293,752	0,03121
293,966	0,03243
294,18	0,02102
294,394	0,01574
294,608	0,0189
294,823	0,02391
295,037	0,02134
295,251	0,02778
295,465	0,04349
295,679	0,03874
295,893	0,03784
296,107	0,03208
296,321	0,03191
296,535	0,03127
296,749	0,03739
296,963	0,02792
297,177	0,02622
297,391	0,0304
297,604	0,03043
297,818	0,02507
298,032	0,02004
298,246	0,0153
298,46	0,02022
298,674	0,02326
298,888	0,04055
299,102	0,04085
299,315	0,05002
299,529	0,05576
299,743	0,05832
299,957	0,05476
300,171	0,05618
300,385	0,06413
300,598	0,05979
300,812	0,05369
301,026	0,05304
301,24	0,05118
301,453	0,04688
301,667	0,04019
301,881	0,036
302,094	0,03112
302,308	0,03251
302,522	0,04525
302,735	0,0423
302,949	0,04568
303,163	0,04922
303,376	0,03858
303,59	0,03768
303,803	0,03597
304,017	0,03573
304,231	0,04056
304,444	0,04425
304,658	0,04559
304,871	0,04099
305,085	0,03702
305,298	0,03513
305,512	0,03317
305,725	0,03451
305,939	0,0247
306,152	0,02151
306,366	0,01164
306,579	0,01281
306,793	0,01906
307,006	0,02321
307,22	0,01866
307,433	0,0245
307,646	0,01815
307,86	0,01718
308,073	0,02504
308,286	0,02181
308,5	0,02193
308,713	0,03172
308,926	0,03538
309,14	0,02799
309,353	0,02306
309,566	0,01695
309,78	0,00883
309,993	0,02569
310,206	0,03408
310,419	0,03415
310,633	0,03927
310,846	0,0529
311,059	0,0485
311,272	0,0381
311,486	0,0344
311,699	0,02995
311,912	0,0329
312,125	0,03659
312,338	0,03221
312,551	0,02492
312,764	0,02744
312,978	0,02997
313,191	0,02577
313,404	0,02118
313,617	0,02524
313,83	0,02708
314,043	0,03225
314,256	0,0356
314,469	0,035
314,682	0,02825
314,895	0,03255
315,108	0,03534
315,321	0,03668
315,534	0,0307
315,747	0,04311
315,96	0,04774
316,173	0,05489
316,386	0,05322
316,599	0,0513
316,812	0,05334
317,025	0,06266
317,237	0,06306
317,45	0,05656
317,663	0,05282
317,876	0,05254
318,089	0,04273
318,302	0,03117
318,515	0,02313
318,727	0,01512
318,94	0,01593
319,153	0,01501
319,366	0,01296
319,578	0,0065
319,791	0,01465
320,004	0,01153
320,217	0,01506
320,429	0,02155
320,642	0,02252
320,855	0,01662
321,067	0,01387
321,28	0,01021
321,493	0,01368
321,705	0,00935
321,918	0,01177
322,131	0,01155
322,343	0,00897
322,556	0,00818
322,768	0,00596
322,981	0,00433
323,194	0,01076
323,406	0,01683
323,619	0,01773
323,831	0,01841
324,044	0,01965
324,256	0,02066
324,469	0,01496
324,681	0,01952
324,894	0,01542
325,106	0,02389
325,319	0,01743
325,531	0,02097
325,743	0,02899
325,956	0,03324
326,168	0,03141
326,381	0,03547
326,593	0,02962
326,805	0,03104
327,018	0,03501
327,23	0,03071
327,442	0,0306
327,655	0,03666
327,867	0,04025
328,079	0,03653
328,292	0,03465
328,504	0,04428
328,716	0,03988
328,928	0,05942
329,141	0,05553
329,353	0,05184
329,565	0,06535
329,777	0,05796
329,99	0,0605
330,202	0,06252
330,414	0,06144
330,626	0,05869
330,838	0,04875
331,05	0,04939
331,263	0,03718
331,475	0,04462
331,687	0,04381
331,899	0,04728
332,111	0,04606
332,323	0,04683
332,535	0,04179
332,747	0,04666
332,959	0,04703
333,171	0,04533
333,383	0,04605
333,595	0,041
333,807	0,03311
334,019	0,03135
334,231	0,02324
334,443	0,02215
334,655	0,02782
334,867	0,02781
335,079	0,02574
335,291	0,02486
335,503	0,03419
335,714	0,03085
335,926	0,0393
336,138	0,03584
336,35	0,04114
336,562	0,04581
336,774	0,04252
336,986	0,04246
337,197	0,03525
337,409	0,03518
337,621	0,03955
337,833	0,03505
338,044	0,03954
338,256	0,0368
338,468	0,04262
338,68	0,03814
338,891	0,02186
339,103	0,01872
339,315	0,00885
339,526	0,00786
339,738	-0,00204
339,95	-0,00451
340,161	0,00073
340,373	-0,0042
340,585	-0,01449
340,796	-0,0119
341,008	-0,01177
341,219	0,00461
341,431	0,00791
341,642	0,01417
341,854	0,02365
342,065	0,03326
342,277	0,02923
342,489	0,02395
342,7	0,03418
342,912	0,03751
343,123	0,03682
343,334	0,04054
343,546	0,02954
343,757	0,03332
343,969	0,02877
344,18	0,02369
344,392	0,02426
344,603	0,03784
344,814	0,03671
345,026	0,03382
345,237	0,03377
345,448	0,03104
345,66	0,02461
345,871	0,03503
346,082	0,03882
346,294	0,04368
346,505	0,04927
346,716	0,04913
346,927	0,04021
347,139	0,04361
347,35	0,0447
347,561	0,04722
347,772	0,05017
347,984	0,05748
348,195	0,05438
348,406	0,04478
348,617	0,04194
348,828	0,03858
349,039	0,03945
349,251	0,04021
349,462	0,04085
349,673	0,03273
349,884	0,03725
350,095	0,03915
350,306	0,03689
350,517	0,04189
350,728	0,04503
350,939	0,05027
351,15	0,05118
351,361	0,04849
351,572	0,05261
351,783	0,05359
351,994	0,05929
352,205	0,0571
352,416	0,05356
352,627	0,05365
352,838	0,04945
353,049	0,05779
353,26	0,056
353,471	0,05171
353,682	0,0457
353,893	0,04168
354,103	0,03789
354,314	0,03612
354,525	0,0371
354,736	0,03524
354,947	0,04447
355,157	0,04307
355,368	0,04094
355,579	0,02787
355,79	0,03267
356,001	0,03659
356,211	0,04453
356,422	0,03054
356,633	0,03141
356,843	0,02745
357,054	0,02662
357,265	0,01984
357,476	0,02327
357,686	0,01974
357,897	0,03604
358,107	0,02961
358,318	0,02885
358,529	0,02209
358,739	0,03828
358,95	0,03887
359,16	0,04106
359,371	0,04073
359,582	0,04079
359,792	0,03548
360,003	0,02997
360,213	0,01972
360,424	0,02554
360,634	0,02786
360,845	0,02762
361,055	0,02927
361,266	0,02433
361,476	0,02927
361,686	0,03265
361,897	0,02757
362,107	0,03106
362,318	0,0391
362,528	0,04525
362,738	0,04533
362,949	0,04868
363,159	0,04847
363,369	0,04229
363,58	0,03934
363,79	0,03365
364	0,03392
364,211	0,03361
364,421	0,03056
364,631	0,03402
364,842	0,02648
365,052	0,02325
365,262	0,01607
365,472	0,01696
365,682	0,01773
365,893	0,02044
366,103	0,02266
366,313	0,02141
366,523	0,03013
366,733	0,03084
366,943	0,02907
367,154	0,03784
367,364	0,04653
367,574	0,05209
367,784	0,05028
367,994	0,05391
368,204	0,05738
368,414	0,05613
368,624	0,05466
368,834	0,04397
369,044	0,04364
369,254	0,03873
369,464	0,03384
369,674	0,02793
369,884	0,02109
370,094	0,02217
370,304	0,01467
370,514	0,01682
370,724	0,01468
370,934	0,01269
371,144	0,01001
371,353	0,01088
371,563	0,0135
371,773	0,01363
371,983	0,014
372,193	0,01877
372,403	0,02449
372,612	0,02644
372,822	0,02407
373,032	0,02203
373,242	0,02582
373,452	0,03042
373,661	0,0312
373,871	0,02719
374,081	0,03158
374,29	0,03073
374,5	0,02954
374,71	0,02081
374,92	0,02282
375,129	0,02061
375,339	0,02409
375,549	0,0223
375,758	0,02477
375,968	0,02201
376,177	0,0189
376,387	0,01125
376,597	0,01156
376,806	0,01466
377,016	0,0169
377,225	0,01485
377,435	0,01217
377,644	0,00973
377,854	0,01177
378,063	0,00972
378,273	0,01093
378,482	0,0162
378,692	0,01745
378,901	0,01421
379,111	0,00829
379,32	0,01191
379,529	0,01308
379,739	0,01934
379,948	0,02226
380,158	0,02243
380,367	0,02852
380,576	0,0285
380,786	0,02603
380,995	0,03058
381,204	0,03564
381,414	0,04212
381,623	0,03987
381,832	0,04127
382,041	0,0374
382,251	0,0374
382,46	0,03334
382,669	0,0285
382,878	0,0308
383,088	0,03486
383,297	0,0353
383,506	0,03313
383,715	0,02861
383,924	0,02469
384,133	0,02061
384,342	0,02342
384,552	0,02353
384,761	0,02802
384,97	0,03004
385,179	0,03148
385,388	0,02989
385,597	0,02725
385,806	0,02579
386,015	0,02535
386,224	0,02905
386,433	0,03304
386,642	0,03149
386,851	0,02898
387,06	0,02718
387,269	0,02479
387,478	0,02285
387,687	0,02299
387,896	0,02466
388,105	0,02391
388,314	0,02073
388,523	0,01963
388,731	0,01678
388,94	0,01793
389,149	0,019
389,358	0,01878
389,567	0,0226
389,776	0,02228
389,984	0,02238
390,193	0,02234
390,402	0,02291
390,611	0,0278
390,819	0,02635
391,028	0,0288
391,237	0,02886
391,446	0,02753
391,654	0,0295
391,863	0,0241
392,072	0,02363
392,28	0,02339
392,489	0,02273
392,698	0,02147
392,906	0,01755
393,115	0,01791
393,324	0,01884
393,532	0,01638
393,741	0,01657
393,949	0,01512
394,158	0,01776
394,366	0,01342
394,575	0,01121
394,783	0,01104
394,992	0,01329
395,2	0,01562
395,409	0,0179
395,617	0,01437
395,826	0,01566
396,034	0,01587
396,243	0,01644
396,451	0,01646
396,66	0,02135
396,868	0,02229
397,076	0,01879
397,285	0,01728
397,493	0,01867
397,701	0,01795
397,91	0,01809
398,118	0,01642
398,326	0,01683
398,535	0,01391
398,743	0,01297
398,951	0,01207
399,159	0,01356
399,368	0,01963
399,576	0,0206
399,784	0,01982
399,992	0,01775
400,201	0,01925
400,409	0,02034
400,617	0,01936
400,825	0,02111
401,033	0,02204
401,241	0,01973
401,45	0,01907
401,658	0,01802
401,866	0,0206
402,074	0,02006
402,282	0,0202
402,49	0,01856
402,698	0,01979
402,906	0,02113
403,114	0,02059
403,322	0,01946
403,53	0,02386
403,738	0,02359
403,946	0,02015
404,154	0,01626
404,362	0,01639
404,57	0,01559
404,778	0,01624
404,986	0,01605
405,194	0,0163
405,402	0,01781
405,609	0,01813
405,817	0,01341
406,025	0,01402
406,233	0,01794
406,441	0,0201
406,649	0,01897
406,856	0,01863
407,064	0,01946
407,272	0,01811
407,48	0,01715
407,687	0,01656
407,895	0,01788
408,103	0,02082
408,311	0,02162
408,518	0,01861
408,726	0,01723
408,934	0,01909
409,141	0,02154
409,349	0,01856
409,557	0,01939
409,764	0,01972
409,972	0,01997
410,18	0,01779
410,387	0,01782
410,595	0,01642
410,802	0,0167
411,01	0,01709
411,217	0,01772
411,425	0,01745
411,632	0,01831
411,84	0,01882
412,047	0,01824
412,255	0,01677
412,462	0,01912
412,67	0,01787
412,877	0,01857
413,085	0,01926
413,292	0,01948
413,499	0,01876
413,707	0,01835
413,914	0,01719
414,122	0,01575
414,329	0,01566
414,536	0,01622
414,744	0,01434
414,951	0,01474
415,158	0,01306
415,366	0,01154
415,573	0,01249
415,78	0,01275
415,987	0,01222
416,195	0,01405
416,402	0,01387
416,609	0,01512
416,816	0,01664
417,023	0,01748
417,231	0,01811
417,438	0,01901
417,645	0,01918
417,852	0,01727
418,059	0,01771
418,266	0,01606
418,473	0,01616
418,68	0,01774
418,888	0,01666
419,095	0,0154
419,302	0,01492
419,509	0,0137
419,716	0,0146
419,923	0,01594
420,13	0,01519
420,337	0,01573
420,544	0,0171
420,751	0,01579
420,958	0,01558
421,165	0,01665
421,371	0,01526
421,578	0,01394
421,785	0,01342
421,992	0,01246
422,199	0,01253
422,406	0,01478
422,613	0,01327
422,82	0,01327
423,026	0,0144
423,233	0,01323
423,44	0,01211
423,647	0,01243
423,854	0,01368
424,06	0,01348
424,267	0,01254
424,474	0,01112
424,681	0,00925
424,887	0,00891
425,094	0,00912
425,301	0,00992
425,507	0,00978
425,714	0,00908
425,921	0,00857
426,127	0,00729
426,334	0,00809
426,54	0,00914
426,747	0,00956
426,954	0,01041
427,16	0,01001
427,367	0,01006
427,573	0,00957
427,78	0,01031
427,986	0,01082
428,193	0,01153
428,399	0,01311
428,606	0,01278
428,812	0,01246
429,019	0,01237
429,225	0,01349
429,432	0,01453
429,638	0,01397
429,845	0,01299
430,051	0,01371
430,257	0,01264
430,464	0,0128
430,67	0,01188
430,876	0,01266
431,083	0,01278
431,289	0,013
431,495	0,01273
431,702	0,01143
431,908	0,01163
432,114	0,01101
432,32	0,01013
432,527	0,01107
432,733	0,01009
432,939	0,01037
433,145	0,01034
433,351	0,01035
433,558	0,01077
433,764	0,01086
433,97	0,01077
434,176	0,01076
434,382	0,01183
434,588	0,01173
434,794	0,01108
435,001	0,01225
435,207	0,01212
435,413	0,01143
435,619	0,01193
435,825	0,01118
436,031	0,00953
436,237	0,01034
436,443	0,01104
436,649	0,01164
436,855	0,01146
437,061	0,01368
437,267	0,01359
437,473	0,01343
437,679	0,01405
437,884	0,01278
438,09	0,01299
438,296	0,01233
438,502	0,01165
438,708	0,01122
438,914	0,01038
439,12	0,0106
439,325	0,00926
439,531	0,00919
439,737	0,00866
439,943	0,00862
440,149	0,00907
440,354	0,00917
440,56	0,01012
440,766	0,00962
440,972	0,01
441,177	0,01026
441,383	0,01075
441,589	0,01085
441,794	0,01104
442	0,01182
442,206	0,01088
442,411	0,01047
442,617	0,00973
442,822	0,00954
443,028	0,01072
443,234	0,01127
443,439	0,01081
443,645	0,0097
443,85	0,00987
444,056	0,00984
444,261	0,00983
444,467	0,0106
444,672	0,0113
444,878	0,01194
445,083	0,01323
445,289	0,01308
445,494	0,01175
445,699	0,01166
445,905	0,01234
446,11	0,01272
446,316	0,01266
446,521	0,01203
446,726	0,01232
446,932	0,01223
447,137	0,0124
447,342	0,0115
447,548	0,01083
447,753	0,01106
447,958	0,01158
448,164	0,0108
448,369	0,01066
448,574	0,01018
448,779	0,01052
448,984	0,01037
449,19	0,01106
449,395	0,01107
449,6	0,01114
449,805	0,01162
450,01	0,01175
450,215	0,01211
450,421	0,01318
450,626	0,01311
450,831	0,01383
451,036	0,01325
451,241	0,01392
451,446	0,01307
451,651	0,01276
451,856	0,01252
452,061	0,01221
452,266	0,01202
452,471	0,01136
452,676	0,01122
452,881	0,01064
453,086	0,01104
453,291	0,01182
453,496	0,01061
453,701	0,01096
453,906	0,01175
454,111	0,01149
454,316	0,01196
454,52	0,01233
454,725	0,01281
454,93	0,01251
455,135	0,01315
455,34	0,01265
455,545	0,01303
455,749	0,01319
455,954	0,01243
456,159	0,01162
456,364	0,01284
456,568	0,01348
456,773	0,01364
456,978	0,01377
457,182	0,01405
457,387	0,01417
457,592	0,01397
457,796	0,01332
458,001	0,01416
458,206	0,01448
458,41	0,01465
458,615	0,01383
458,82	0,01293
459,024	0,01299
459,229	0,01321
459,433	0,0133
459,638	0,01313
459,842	0,01365
460,047	0,01369
460,251	0,01336
460,456	0,0136
460,66	0,01372
460,865	0,01391
461,069	0,01457
461,274	0,01491
461,478	0,01484
461,682	0,01459
461,887	0,0146
462,091	0,01439
462,296	0,01504
462,5	0,01544
462,704	0,0159
462,909	0,01545
463,113	0,01579
463,317	0,01565
463,522	0,01578
463,726	0,01593
463,93	0,01615
464,134	0,01631
464,339	0,01662
464,543	0,01662
464,747	0,01569
464,951	0,01567
465,155	0,01598
465,36	0,01616
465,564	0,01598
465,768	0,0152
465,972	0,01587
466,176	0,01607
466,38	0,01633
466,584	0,01642
466,788	0,01646
466,993	0,01652
467,197	0,01623
467,401	0,01698
467,605	0,01652
467,809	0,01732
468,013	0,01862
468,217	0,01806
468,421	0,01802
468,625	0,0178
468,829	0,01772
469,033	0,0179
469,236	0,01859
469,44	0,01841
469,644	0,01815
469,848	0,01859
470,052	0,01843
470,256	0,01726
470,46	0,01763
470,664	0,01766
470,867	0,01793
471,071	0,01816
471,275	0,01835
471,479	0,01812
471,683	0,01832
471,886	0,01857
472,09	0,01859
472,294	0,0184
472,497	0,01889
472,701	0,01881
472,905	0,01889
473,109	0,01941
473,312	0,01954
473,516	0,01974
473,719	0,02004
473,923	0,02038
474,127	0,02056
474,33	0,0204
474,534	0,02094
474,737	0,02142
474,941	0,02158
475,145	0,02153
475,348	0,02131
475,552	0,02113
475,755	0,02102
475,959	0,02136
476,162	0,02154
476,366	0,02176
476,569	0,02181
476,772	0,02193
476,976	0,02193
477,179	0,02196
477,383	0,02212
477,586	0,02227
477,789	0,02264
477,993	0,02322
478,196	0,02318
478,399	0,02333
478,603	0,02335
478,806	0,02389
479,009	0,02336
479,213	0,02338
479,416	0,02351
479,619	0,02428
479,822	0,02429
480,026	0,02446
480,229	0,02409
480,432	0,02455
480,635	0,02481
480,838	0,02486
481,041	0,02465
481,245	0,02505
481,448	0,02463
481,651	0,02482
481,854	0,02442
482,057	0,02453
482,26	0,02454
482,463	0,0248
482,666	0,02467
482,869	0,02479
483,072	0,02485
483,275	0,02521
483,478	0,02528
483,681	0,02627
483,884	0,02662
484,087	0,02687
484,29	0,02725
484,493	0,02758
484,696	0,02778
484,899	0,02799
485,102	0,02801
485,305	0,0282
485,508	0,0287
485,71	0,02904
485,913	0,029
486,116	0,02909
486,319	0,02946
486,522	0,02964
486,725	0,02979
486,927	0,03021
487,13	0,03044
487,333	0,0308
487,536	0,03128
487,738	0,03132
487,941	0,03162
488,144	0,03193
488,346	0,0319
488,549	0,03176
488,752	0,03201
488,954	0,03227
489,157	0,03202
489,359	0,03225
489,562	0,03222
489,765	0,03207
489,967	0,03221
490,17	0,03251
490,372	0,03258
490,575	0,03279
490,777	0,03339
490,98	0,03331
491,182	0,03309
491,385	0,03341
491,587	0,03349
491,79	0,03379
491,992	0,03412
492,195	0,03429
492,397	0,03429
492,599	0,03452
492,802	0,03486
493,004	0,03513
493,207	0,03534
493,409	0,03598
493,611	0,0363
493,814	0,0367
494,016	0,03664
494,218	0,03666
494,42	0,03704
494,623	0,03733
494,825	0,03765
495,027	0,03774
495,229	0,03785
495,432	0,03803
495,634	0,03827
495,836	0,03855
496,038	0,03866
496,24	0,03906
496,442	0,03945
496,645	0,03952
496,847	0,03984
497,049	0,03988
497,251	0,04025
497,453	0,04046
497,655	0,04081
497,857	0,04109
498,059	0,0415
498,261	0,04178
498,463	0,04233
498,665	0,0426
498,867	0,04295
499,069	0,04312
499,271	0,04334
499,473	0,04352
499,675	0,04376
499,877	0,04401
500,079	0,04411
500,281	0,04409
500,482	0,04443
500,684	0,0446
500,886	0,04491
501,088	0,04519
501,29	0,04552
501,492	0,04569
501,693	0,04619
501,895	0,04651
502,097	0,04687
502,299	0,0473
502,5	0,0476
502,702	0,04776
502,904	0,0482
503,106	0,04862
503,307	0,04883
503,509	0,04904
503,711	0,04958
503,912	0,04989
504,114	0,05005
504,315	0,05025
504,517	0,05048
504,719	0,05093
504,92	0,05098
505,122	0,05109
505,323	0,05109
505,525	0,05141
505,726	0,05187
505,928	0,05231
506,129	0,05264
506,331	0,05295
506,532	0,05353
506,734	0,05391
506,935	0,05427
507,137	0,05461
507,338	0,05502
507,539	0,05544
507,741	0,05591
507,942	0,05605
508,143	0,05619
508,345	0,05623
508,546	0,0566
508,747	0,05694
508,949	0,05735
509,15	0,05735
509,351	0,05778
509,553	0,05775
509,754	0,0582
509,955	0,0582
510,156	0,05871
510,357	0,05891
510,559	0,05936
510,76	0,05971
510,961	0,05993
511,162	0,06007
511,363	0,06044
511,564	0,06093
511,766	0,06151
511,967	0,06193
512,168	0,06241
512,369	0,06265
512,57	0,06316
512,771	0,0637
512,972	0,06387
513,173	0,06414
513,374	0,06457
513,575	0,06501
513,776	0,06543
513,977	0,0657
514,178	0,066
514,379	0,06644
514,58	0,06684
514,781	0,06738
514,981	0,06761
515,182	0,06792
515,383	0,0684
515,584	0,06869
515,785	0,06918
515,986	0,06941
516,187	0,0699
516,387	0,07031
516,588	0,07083
516,789	0,07129
516,99	0,07158
517,19	0,07177
517,391	0,07239
517,592	0,07275
517,793	0,07318
517,993	0,07351
518,194	0,07392
518,395	0,07446
518,595	0,07468
518,796	0,07483
518,996	0,07503
519,197	0,07531
519,398	0,07576
519,598	0,0764
519,799	0,07666
519,999	0,07706
520,2	0,07756
520,4	0,07792
520,601	0,07826
520,801	0,07876
521,002	0,07913
521,202	0,07963
521,403	0,08019
521,603	0,08072
521,804	0,08072
522,004	0,08123
522,204	0,08164
522,405	0,08185
522,605	0,08223
522,806	0,08266
523,006	0,08295
523,206	0,0833
523,407	0,08383
523,607	0,08412
523,807	0,08439
524,007	0,08484
524,208	0,08515
524,408	0,0855
524,608	0,08606
524,808	0,08656
525,009	0,08683
525,209	0,08719
525,409	0,08774
525,609	0,08799
525,809	0,08861
526,009	0,08905
526,209	0,08942
526,41	0,08993
526,61	0,0905
526,81	0,09082
527,01	0,09111
527,21	0,0915
527,41	0,09206
527,61	0,09232
527,81	0,09256
528,01	0,09278
528,21	0,09325
528,41	0,09375
528,61	0,09401
528,81	0,09414
529,01	0,09451
529,21	0,09501
529,41	0,09538
529,609	0,09548
529,809	0,09586
530,009	0,09632
530,209	0,09668
530,409	0,09691
530,609	0,09726
530,808	0,09763
531,008	0,09804
531,208	0,09858
531,408	0,09882
531,608	0,09913
531,807	0,09953
532,007	0,09996
532,207	0,10032
532,406	0,10051
532,606	0,10104
532,806	0,1015
533,005	0,1018
533,205	0,1019
533,405	0,10192
533,604	0,10234
533,804	0,10248
534,003	0,10292
534,203	0,10314
534,403	0,10338
534,602	0,10368
534,802	0,10364
535,001	0,10393
535,201	0,10414
535,4	0,10461
535,6	0,10506
535,799	0,10537
535,998	0,10581
536,198	0,10616
536,397	0,10662
536,597	0,10696
536,796	0,10742
536,995	0,10779
537,195	0,10783
537,394	0,10821
537,594	0,10851
537,793	0,10876
537,992	0,10908
538,191	0,10932
538,391	0,1096
538,59	0,1098
538,789	0,10999
538,988	0,10998
539,188	0,11022
539,387	0,11057
539,586	0,11096
539,785	0,11124
539,984	0,11153
540,184	0,11156
540,383	0,11189
540,582	0,11188
540,781	0,11218
540,98	0,11247
541,179	0,11289
541,378	0,11325
541,577	0,11344
541,776	0,11362
541,975	0,11385
542,174	0,11415
542,373	0,1145
542,572	0,11469
542,771	0,115
542,97	0,11513
543,169	0,11539
543,368	0,11548
543,567	0,11569
543,766	0,11579
543,965	0,11591
544,164	0,11593
544,362	0,11614
544,561	0,1163
544,76	0,1164
544,959	0,11675
545,158	0,11686
545,356	0,11694
545,555	0,11728
545,754	0,11742
545,953	0,11771
546,151	0,1179
546,35	0,11821
546,549	0,11827
546,748	0,1185
546,946	0,11863
547,145	0,11862
547,344	0,11886
547,542	0,11898
547,741	0,11914
547,939	0,11934
548,138	0,11953
548,337	0,11963
548,535	0,11973
548,734	0,11973
548,932	0,11966
549,131	0,11991
549,329	0,12004
549,528	0,1202
549,726	0,1204
549,925	0,12036
550,123	0,12039
550,322	0,12061
550,52	0,12074
550,718	0,12103
550,917	0,12116
551,115	0,12125
551,313	0,12151
551,512	0,12176
551,71	0,12192
551,908	0,12212
552,107	0,12248
552,305	0,1227
552,503	0,12264
552,702	0,12262
552,9	0,12255
553,098	0,12274
553,296	0,12289
553,495	0,12295
553,693	0,123
553,891	0,12309
554,089	0,12304
554,287	0,12314
554,485	0,12329
554,683	0,12338
554,882	0,12361
555,08	0,1239
555,278	0,12419
555,476	0,12435
555,674	0,12439
555,872	0,12443
556,07	0,12436
556,268	0,12463
556,466	0,12456
556,664	0,12465
556,862	0,12487
557,06	0,12509
557,258	0,12514
557,456	0,12531
557,654	0,12553
557,851	0,12551
558,049	0,12565
558,247	0,12606
558,445	0,12613
558,643	0,12636
558,841	0,12646
559,039	0,1266
559,236	0,12662
559,434	0,12685
559,632	0,12678
559,83	0,12704
560,027	0,12735
560,225	0,12748
560,423	0,12756
560,62	0,12781
560,818	0,12783
561,016	0,12801
561,213	0,12823
561,411	0,12856
561,609	0,12855
561,806	0,1288
562,004	0,12889
562,202	0,12892
562,399	0,12928
562,597	0,1294
562,794	0,12951
562,992	0,12985
563,189	0,13
563,387	0,13021
563,584	0,13043
563,782	0,13058
563,979	0,13069
564,177	0,13096
564,374	0,13129
564,571	0,13146
564,769	0,13157
564,966	0,1317
565,164	0,1319
565,361	0,13217
565,558	0,13234
565,756	0,13248
565,953	0,13289
566,15	0,1332
566,347	0,13353
566,545	0,13392
566,742	0,13414
566,939	0,13458
567,136	0,13488
567,334	0,13511
567,531	0,13526
567,728	0,13546
567,925	0,13581
568,122	0,13607
568,319	0,13634
568,517	0,13651
568,714	0,13668
568,911	0,13701
569,108	0,1374
569,305	0,13781
569,502	0,13821
569,699	0,13857
569,896	0,1389
570,093	0,13911
570,29	0,1394
570,487	0,13971
570,684	0,14017
570,881	0,14043
571,078	0,1407
571,275	0,14099
571,472	0,14132
571,669	0,14164
571,866	0,14198
572,062	0,14234
572,259	0,14274
572,456	0,14304
572,653	0,14336
572,85	0,14352
573,047	0,1439
573,243	0,14428
573,44	0,14452
573,637	0,14479
573,834	0,14519
574,03	0,1457
574,227	0,14605
574,424	0,14638
574,62	0,1467
574,817	0,14724
575,014	0,14753
575,21	0,14784
575,407	0,14821
575,604	0,14862
575,8	0,1491
575,997	0,14953
576,193	0,14982
576,39	0,15022
576,586	0,15069
576,783	0,1512
576,979	0,1515
577,176	0,15192
577,372	0,15229
577,569	0,15271
577,765	0,15311
577,962	0,15356
578,158	0,15398
578,355	0,15438
578,551	0,15484
578,747	0,15501
578,944	0,1554
579,14	0,15575
579,336	0,1563
579,533	0,15655
579,729	0,15686
579,925	0,15708
580,122	0,15728
580,318	0,15751
580,514	0,1578
580,71	0,15809
580,906	0,15867
581,103	0,1591
581,299	0,15954
581,495	0,15967
581,691	0,16034
581,887	0,16071
582,084	0,16114
582,28	0,16148
582,476	0,16173
582,672	0,16209
582,868	0,16247
583,064	0,16266
583,26	0,16297
583,456	0,16323
583,652	0,1636
583,848	0,1638
584,044	0,16415
584,24	0,16436
584,436	0,16474
584,632	0,16506
584,828	0,16533
585,024	0,16547
585,22	0,16578
585,416	0,16573
585,611	0,16592
585,807	0,16616
586,003	0,16645
586,199	0,16653
586,395	0,16685
586,591	0,16694
586,786	0,16714
586,982	0,16717
587,178	0,1674
587,374	0,16745
587,569	0,1677
587,765	0,16785
587,961	0,16801
588,156	0,16812
588,352	0,16819
588,548	0,16828
588,743	0,16828
588,939	0,16824
589,135	0,1684
589,33	0,16834
589,526	0,16838
589,721	0,16837
589,917	0,16815
590,112	0,16799
590,308	0,16773
590,503	0,16784
590,699	0,16774
590,894	0,16776
591,09	0,16769
591,285	0,16753
591,481	0,16756
591,676	0,16748
591,872	0,16732
592,067	0,16724
592,262	0,16714
592,458	0,16709
592,653	0,16681
592,848	0,16656
593,044	0,16641
593,239	0,16615
593,434	0,16585
593,629	0,16552
593,825	0,16518
594,02	0,16503
594,215	0,16487
594,41	0,16459
594,606	0,16417
594,801	0,16386
594,996	0,16362
595,191	0,16324
595,386	0,16294
595,581	0,16264
595,777	0,16233
595,972	0,16201
596,167	0,16162
596,362	0,16115
596,557	0,16069
596,752	0,16024
596,947	0,15978
597,142	0,15929
597,337	0,15878
597,532	0,15827
597,727	0,15784
597,922	0,15723
598,117	0,15678
598,312	0,15621
598,507	0,15564
598,701	0,1551
598,896	0,15461
599,091	0,15395
599,286	0,15326
599,481	0,15242
599,676	0,15188
599,87	0,15116
600,065	0,15057
600,26	0,14987
600,455	0,14912
600,65	0,14848
600,844	0,14776
601,039	0,14699
601,234	0,14645
601,428	0,14581
601,623	0,14529
601,818	0,1445
602,012	0,14383
602,207	0,14308
602,402	0,14221
602,596	0,14142
602,791	0,14054
602,985	0,1399
603,18	0,13913
603,374	0,13825
603,569	0,13746
603,763	0,13663
603,958	0,1358
604,152	0,135
604,347	0,13421
604,541	0,13335
604,736	0,13255
604,93	0,13177
605,125	0,13083
605,319	0,12996
605,513	0,12896
605,708	0,12812
605,902	0,12727
606,096	0,12636
606,291	0,12552
606,485	0,12449
606,679	0,1238
606,874	0,12291
607,068	0,12209
607,262	0,12119
607,456	0,12037
607,65	0,11948
607,845	0,11855
608,039	0,1177
608,233	0,11673
608,427	0,11567
608,621	0,11486
608,815	0,11391
609,01	0,11301
609,204	0,11201
609,398	0,1111
609,592	0,11015
609,786	0,10942
609,98	0,10861
610,174	0,10772
610,368	0,10691
610,562	0,10603
610,756	0,10508
610,95	0,1042
611,144	0,10332
611,338	0,1025
611,532	0,1015
611,726	0,10059
611,919	0,09966
612,113	0,09868
612,307	0,09775
612,501	0,09691
612,695	0,09616
612,889	0,09528
613,082	0,09433
613,276	0,09348
613,47	0,09266
613,664	0,0918
613,857	0,09087
614,051	0,09001
614,245	0,08916
614,439	0,08834
614,632	0,08752
614,826	0,08652
615,02	0,08562
615,213	0,08482
615,407	0,08406
615,6	0,08313
615,794	0,08247
615,988	0,08165
616,181	0,08082
616,375	0,07998
616,568	0,07908
616,762	0,07822
616,955	0,07758
617,149	0,07686
617,342	0,07601
617,536	0,07517
617,729	0,0745
617,923	0,07367
618,116	0,07297
618,309	0,07211
618,503	0,0714
618,696	0,07067
618,889	0,06996
619,083	0,06906
619,276	0,06824
619,469	0,06751
619,663	0,06673
619,856	0,06599
620,049	0,06535
620,242	0,06466
620,436	0,06403
620,629	0,06349
620,822	0,0628
621,015	0,06208
621,209	0,06154
621,402	0,06099
621,595	0,06036
621,788	0,05965
621,981	0,05886
622,174	0,0581
622,367	0,05737
622,56	0,05665
622,753	0,0559
622,946	0,05525
623,139	0,05456
623,332	0,05387
623,525	0,05321
623,718	0,05254
623,911	0,05213
624,104	0,05153
624,297	0,05095
624,49	0,05055
624,683	0,04999
624,876	0,04935
625,069	0,0488
625,262	0,04836
625,454	0,04777
625,647	0,04723
625,84	0,04662
626,033	0,04594
626,226	0,04547
626,418	0,04498
626,611	0,0444
626,804	0,04376
626,997	0,04322
627,189	0,04272
627,382	0,04217
627,575	0,04173
627,767	0,04123
627,96	0,04087
628,153	0,0403
628,345	0,0398
628,538	0,03931
628,731	0,0388
628,923	0,03848
629,116	0,03813
629,308	0,03758
629,501	0,03708
629,693	0,03667
629,886	0,03615
630,078	0,03557
630,271	0,03529
630,463	0,03487
630,656	0,03446
630,848	0,0339
631,04	0,03348
631,233	0,03298
631,425	0,03265
631,617	0,03224
631,81	0,03176
632,002	0,03146
632,194	0,03117
632,387	0,03071
632,579	0,0304
632,771	0,02995
632,964	0,02971
633,156	0,02933
633,348	0,02897
633,54	0,02872
633,732	0,02836
633,925	0,02801
634,117	0,0278
634,309	0,02754
634,501	0,02719
634,693	0,02675
634,885	0,0265
635,077	0,02615
635,269	0,02589
635,462	0,02567
635,654	0,0253
635,846	0,02511
636,038	0,0248
636,23	0,0244
636,422	0,02409
636,614	0,02386
636,806	0,02367
636,997	0,02343
637,189	0,02321
637,381	0,02291
637,573	0,02258
637,765	0,02232
637,957	0,022
638,149	0,02177
638,341	0,02154
638,532	0,02124
638,724	0,02098
638,916	0,02074
639,108	0,02041
639,299	0,02016
639,491	0,01995
639,683	0,01992
639,875	0,01981
640,066	0,01962
640,258	0,01935
640,45	0,01912
640,641	0,01907
640,833	0,01887
641,025	0,01868
641,216	0,01852
641,408	0,01838
641,599	0,01822
641,791	0,01786
641,982	0,01756
642,174	0,01738
642,366	0,01724
642,557	0,017
642,748	0,01658
642,94	0,01643
643,131	0,01611
643,323	0,01597
643,514	0,01574
643,706	0,0155
643,897	0,01533
644,088	0,01519
644,28	0,01511
644,471	0,01501
644,662	0,01484
644,854	0,01476
645,045	0,01461
645,236	0,01451
645,428	0,01433
645,619	0,01412
645,81	0,01402
646,001	0,01372
646,193	0,0136
646,384	0,01331
646,575	0,01314
646,766	0,01308
646,957	0,01292
647,148	0,01276
647,339	0,01267
647,531	0,01259
647,722	0,01256
647,913	0,01235
648,104	0,01237
648,295	0,01217
648,486	0,01201
648,677	0,01181
648,868	0,01163
649,059	0,01157
649,25	0,0114
649,441	0,01134
649,632	0,0111
649,823	0,01099
650,013	0,01092
650,204	0,01081
650,395	0,01076
650,586	0,01077
650,777	0,0107
650,968	0,01059
651,159	0,0105
651,349	0,0104
651,54	0,01025
651,731	0,01016
651,922	0,01007
652,112	0,00996
652,303	0,00985
652,494	0,00975
652,684	0,00955
652,875	0,00954
653,066	0,00948
653,256	0,00943
653,447	0,00937
653,638	0,00926
653,828	0,00923
654,019	0,0091
654,209	0,0091
654,4	0,00908
654,59	0,00901
654,781	0,00902
654,972	0,00885
655,162	0,00882
655,352	0,00863
655,543	0,00854
655,733	0,00845
655,924	0,00847
656,114	0,00839
656,305	0,00827
656,495	0,00812
656,685	0,00801
656,876	0,00794
657,066	0,00786
657,256	0,00775
657,447	0,00783
657,637	0,00775
657,827	0,0077
658,017	0,00757
658,208	0,00749
658,398	0,00735
658,588	0,00725
658,778	0,00725
658,968	0,00717
659,159	0,00718
659,349	0,0071
659,539	0,00684
659,729	0,00689
659,919	0,00682
660,109	0,00679
660,299	0,00683
660,489	0,00693
660,679	0,0069
660,869	0,00675
661,059	0,00677
661,249	0,00663
661,439	0,00657
661,629	0,00655
661,819	0,00646
662,009	0,00641
662,199	0,0064
662,389	0,00629
662,579	0,00618
662,769	0,00616
662,959	0,00618
663,149	0,00611
663,338	0,00614
663,528	0,00612
663,718	0,0061
663,908	0,00594
664,097	0,00585
664,287	0,00575
664,477	0,00573
664,667	0,00562
664,856	0,0056
665,046	0,0055
665,236	0,00546
665,425	0,00543
665,615	0,0054
665,805	0,00536
665,994	0,00549
666,184	0,00555
666,373	0,00545
666,563	0,00541
666,753	0,00539
666,942	0,00529
667,132	0,00522
667,321	0,00511
667,511	0,00497
667,7	0,00495
667,889	0,0049
668,079	0,00483
668,268	0,00483
668,458	0,00484
668,647	0,00487
668,836	0,00483
669,026	0,00489
669,215	0,00485
669,404	0,00491
669,594	0,005
669,783	0,00497
669,972	0,00496
670,162	0,00491
670,351	0,00474
670,54	0,00465
670,729	0,00448
670,919	0,00445
671,108	0,00442
671,297	0,0044
671,486	0,0043
671,675	0,00424
671,864	0,00414
672,053	0,00419
672,243	0,00419
672,432	0,00418
672,621	0,00425
672,81	0,00428
672,999	0,00426
673,188	0,00428
673,377	0,0043
673,566	0,00425
673,755	0,00417
673,944	0,00416
674,133	0,004
674,322	0,00397
674,51	0,004
674,699	0,00392
674,888	0,00387
675,077	0,00383
675,266	0,00374
675,455	0,00368
675,644	0,00371
675,832	0,00373
676,021	0,00367
676,21	0,00378
676,399	0,00369
676,587	0,00369
676,776	0,00363
676,965	0,00365
677,153	0,0037
677,342	0,00362
677,531	0,00356
677,719	0,00347
677,908	0,0034
678,097	0,00348
678,285	0,00338
678,474	0,00339
678,662	0,00336
678,851	0,0034
679,039	0,0033
679,228	0,00323
679,416	0,00332
679,605	0,00342
679,793	0,00345
679,982	0,00348
680,17	0,00344
680,359	0,0035
680,547	0,00347
680,736	0,00344
680,924	0,00347
681,112	0,00358
681,301	0,0036
681,489	0,00347
681,677	0,00338
681,866	0,00329
682,054	0,00321
682,242	0,00314
682,43	0,00318
682,619	0,00316
682,807	0,00314
682,995	0,00299
683,183	0,0028
683,371	0,00283
683,559	0,00285
683,748	0,0028
683,936	0,00293
684,124	0,00295
684,312	0,00296
684,5	0,00277
684,688	0,00284
684,876	0,00281
685,064	0,00279
685,252	0,0029
685,44	0,00278
685,628	0,00274
685,816	0,00275
686,004	0,0027
686,192	0,00266
686,38	0,00264
686,568	0,00272
686,756	0,00262
686,944	0,00266
687,131	0,00271
687,319	0,0027
687,507	0,00275
687,695	0,00274
687,883	0,00282
688,07	0,00283
688,258	0,00285
688,446	0,00286
688,634	0,00291
688,821	0,00293
689,009	0,00291
689,197	0,00296
689,384	0,00292
689,572	0,00292
689,76	0,00298
689,947	0,00289
690,135	0,00283
690,323	0,0029
690,51	0,00286
690,698	0,00281
690,885	0,00279
691,073	0,00283
691,26	0,00276
691,448	0,00278
691,635	0,00276
691,823	0,00267
692,01	0,0027
692,197	0,0026
692,385	0,00251
692,572	0,00258
692,76	0,0026
692,947	0,00269
693,134	0,00267
693,322	0,00264
693,509	0,00253
693,696	0,00242
693,884	0,00241
694,071	0,00238
694,258	0,00244
694,445	0,00244
694,633	0,00243
694,82	0,00229
695,007	0,00221
695,194	0,00213
695,381	0,0021
695,568	0,00211
695,756	0,00219
695,943	0,00217
696,13	0,00215
696,317	0,00216
696,504	0,00222
696,691	0,00211
696,878	0,00216
697,065	0,00208
697,252	0,00216
697,439	0,00226
697,626	0,00229
697,813	0,00235
698	0,00234
698,187	0,00229
698,374	0,00232
698,561	0,00232
698,747	0,00232
698,934	0,00229
699,121	0,0024
699,308	0,00227
699,495	0,00213
699,682	0,00214
699,868	0,00205
700,055	0,00198
700,242	0,00193
700,429	0,00184
700,615	0,00175
700,802	0,00174
700,989	0,00174
701,175	0,00164
701,362	0,00166
701,549	0,0017
701,735	0,00169
701,922	0,00169
702,108	0,00177
702,295	0,00181
702,482	0,00186
702,668	0,00189
702,855	0,00191
703,041	0,00193
703,228	0,00201
703,414	0,002
703,601	0,00201
703,787	0,00205
703,973	0,00203
704,16	0,00197
704,346	0,002
704,533	0,00197
704,719	0,0019
704,905	0,00185
705,092	0,00185
705,278	0,00181
705,464	0,00184
705,65	0,00184
705,837	0,00173
706,023	0,00174
706,209	0,00181
706,395	0,00183
706,582	0,00183
706,768	0,00188
706,954	0,00203
707,14	0,00202
707,326	0,002
707,512	0,00194
707,698	0,00192
707,885	0,00198
708,071	0,00201
708,257	0,00197
708,443	0,00197
708,629	0,00199
708,815	0,00197
709,001	0,00188
709,187	0,00179
709,373	0,00182
709,559	0,00177
709,745	0,00175
709,93	0,00159
710,116	0,0016
710,302	0,0016
710,488	0,00162
710,674	0,00162
710,86	0,00158
711,046	0,00158
711,231	0,00164
711,417	0,00166
711,603	0,00171
711,789	0,00168
711,974	0,00182
712,16	0,00175
712,346	0,00168
712,532	0,00164
712,717	0,00155
712,903	0,0015
713,089	0,00153
713,274	0,00154
713,46	0,00142
713,645	0,00145
713,831	0,00159
714,016	0,00148
714,202	0,00158
714,388	0,00176
714,573	0,00167
714,759	0,00168
714,944	0,0017
715,129	0,00162
715,315	0,00166
715,5	0,00166
715,686	0,00165
715,871	0,00151
716,057	0,00158
716,242	0,00156
716,427	0,0014
716,613	0,00148
716,798	0,00149
716,983	0,00157
717,168	0,00164
717,354	0,00166
717,539	0,0017
717,724	0,0017
717,909	0,00172
718,095	0,0017
718,28	0,00161
718,465	0,00167
718,65	0,00164
718,835	0,00151
719,02	0,00144
719,206	0,00143
719,391	0,00137
719,576	0,00128
719,761	0,00129
719,946	0,00127
720,131	0,00127
720,316	0,00132
720,501	0,00126
720,686	0,00144
720,871	0,00162
721,056	0,00168
721,241	0,00162
721,426	0,00151
721,61	0,00161
721,795	0,00153
721,98	0,00159
722,165	0,00166
722,35	0,00172
722,535	0,0017
722,719	0,00154
722,904	0,00151
723,089	0,00144
723,274	0,00143
723,458	0,00138
723,643	0,00135
723,828	0,00142
724,013	0,00132
724,197	0,00124
724,382	0,00113
724,567	0,00116
724,751	0,0012
724,936	0,00117
725,12	0,00109
725,305	0,00116
725,489	0,0013
725,674	0,00134
725,859	0,00136
726,043	0,00145
726,228	0,00149
726,412	0,00153
726,596	0,00149
726,781	0,00143
726,965	0,00146
727,15	0,00165
727,334	0,00163
727,518	0,00151
727,703	0,00152
727,887	0,00145
728,072	0,00139
728,256	0,00135
728,44	0,00132
728,624	0,00132
728,809	0,00131
728,993	0,0013
729,177	0,0012
729,361	0,00128
729,546	0,00134
729,73	0,00133
729,914	0,00127
730,098	0,00127
730,282	0,0012
730,466	0,00118
730,65	0,00124
730,834	0,00124
731,019	0,00122
731,203	0,00121
731,387	0,00117
731,571	0,00114
731,755	0,00111
731,939	0,00109
732,123	0,00099
732,306	0,00102
732,49	0,00108
732,674	0,00108
732,858	0,00109
733,042	0,00109
733,226	0,00113
733,41	0,00109
733,594	0,00115
733,778	0,00118
733,961	0,00132
734,145	0,00142
734,329	0,00154
734,513	0,00152
734,696	0,00146
734,88	0,00149
735,064	0,00141
735,247	0,00139
735,431	0,00143
735,615	0,00133
735,798	0,00145
735,982	0,00146
736,166	0,00146
736,349	0,00135
736,533	0,0013
736,716	0,00138
736,9	0,00137
737,083	0,00138
737,267	0,00139
737,45	0,00132
737,634	0,00143
737,817	0,00122
738,001	0,00109
738,184	0,00114
738,368	0,00116
738,551	0,00114
738,734	0,00108
738,918	0,00106
739,101	0,00119
739,284	0,00112
739,468	0,00114
739,651	0,00117
739,834	0,00127
740,018	0,00131
740,201	0,00125
740,384	0,00131
740,567	0,00136
740,75	0,00142
740,934	0,00134
741,117	0,00122
741,3	0,00131
741,483	0,00139
741,666	0,00129
741,849	0,00124
742,032	0,00115
742,215	0,00106
742,399	0,0011
742,582	0,00108
742,765	0,00113
742,948	0,00125
743,131	0,00135
743,314	0,0013
743,496	0,00115
743,679	0,0012
743,862	0,00121
744,045	0,00126
744,228	0,00135
744,411	0,00128
744,594	0,00136
744,777	0,00131
744,959	0,00128
745,142	0,00128
745,325	0,00129
745,508	0,00132
745,691	0,00138
745,873	0,00137
746,056	0,00137
746,239	0,00137
746,421	0,00141
746,604	0,00129
746,787	0,00133
746,969	0,00131
747,152	0,00117
747,335	0,00113
747,517	0,00119
747,7	0,00117
747,882	0,00123
748,065	0,00119
748,247	0,00126
748,43	0,00121
748,612	0,00121
748,795	0,00111
748,977	0,00116
749,16	0,00118
749,342	0,00129
749,524	0,00125
749,707	0,00115
749,889	0,0011
750,072	0,00111
750,254	0,00101
750,436	0,00099
750,619	0,00109
750,801	0,00108
750,983	0,00098
751,165	0,00098
751,348	0,00098
751,53	0,00093
751,712	0,00103
751,894	0,00106
752,076	0,00121
752,259	0,00121
752,441	0,0012
752,623	0,00119
752,805	0,00105
752,987	0,00106
753,169	0,00107
753,351	0,0009
753,533	0,00091
753,715	0,00088
753,897	0,00086
754,079	0,00084
754,261	0,00089
754,443	0,00092
754,625	0,00092
754,807	0,00111
754,989	0,00117
755,171	0,00123
755,353	0,00126
755,534	0,00121
755,716	0,0011
755,898	0,0011
756,08	0,00104
756,262	0,001
756,443	0,00081
756,625	0,00081
756,807	0,00072
756,989	0,00066
757,17	0,00065
757,352	0,00071
757,534	0,00076
757,715	0,00078
757,897	0,00079
758,079	0,00081
758,26	0,00084
758,442	0,00096
758,623	0,00087
758,805	0,00091
758,987	0,00084
759,168	0,00073
759,35	0,0006
759,531	0,00057
759,713	0,00066
759,894	0,00057
760,075	0,00055
760,257	0,00049
760,438	0,00053
760,62	0,00057
760,801	0,00054
760,982	0,00063
761,164	0,00069
761,345	0,00076
761,526	0,00078
761,708	0,00075
761,889	0,00086
762,07	0,00088
762,251	0,00094
762,433	0,00092
762,614	0,00089
762,795	0,00088
762,976	0,00087
763,157	0,00093
763,338	0,00087
763,52	0,00089
763,701	0,00078
763,882	0,00071
764,063	0,00073
764,244	0,00072
764,425	0,00071
764,606	0,00067
764,787	0,0007
764,968	0,00074
765,149	0,00062
765,33	0,00065
765,511	0,00066
765,692	0,00065
765,873	0,00067
766,053	0,00054
766,234	0,0005
766,415	0,0005
766,596	0,00038
766,777	0,00031
766,958	0,00015
767,138	0,0003
767,319	0,00035
767,5	0,00036
767,681	0,0003
767,861	0,00039
768,042	0,00046
768,223	0,00038
768,403	0,00031
768,584	0,00055
768,765	0,00054
768,945	0,00054
769,126	0,00055
769,307	0,0005
769,487	0,00054
769,668	0,00066
769,848	0,00056
770,029	0,00061
770,209	0,00064
770,39	0,00065
770,57	0,00059
770,751	0,00062
770,931	0,00064
771,111	0,00051
771,292	0,00049
771,472	0,00038
771,653	0,00041
771,833	0,00034
772,013	0,00024
772,194	0,00031
772,374	0,00033
772,554	0,00028
772,734	0,00031
772,915	0,00038
773,095	0,00043
773,275	0,0004
773,455	0,00044
773,635	0,00029
773,816	0,00042
773,996	0,00058
774,176	0,00057
774,356	0,00052
774,536	0,0005
774,716	0,00044
774,896	0,00035
775,076	0,00027
775,256	0,00038
775,436	0,00039
775,616	0,00052
775,796	0,00056
775,976	0,00044
776,156	0,00041
776,336	0,00045
776,516	0,0005
776,696	0,00043
776,876	0,00065
777,056	0,00064
777,235	0,0006
777,415	0,00064
777,595	0,00052
777,775	0,00033
777,955	0,00027
778,134	0,00022
778,314	0,00029
778,494	0,0003
778,674	0,00043
778,853	0,00025
779,033	0,00028
779,213	0,00028
779,392	0,00023
779,572	0,00035
779,751	0,00029
779,931	0,00035
780,111	0,00041
780,29	0,00028
780,47	0,00023
780,649	0,00023
780,829	0,00025
781,008	0,00029
781,188	0,0003
781,367	0,00036
781,546	0,00032
781,726	0,00036
781,905	0,00031
782,085	0,00025
782,264	0,00029
782,443	0,00024
782,623	0,00019
782,802	0,00026
782,981	0,00018
783,161	0,00011
783,34	0,00003
783,519	0,00007
783,698	0,00015
783,878	0,00022
784,057	0,0003
784,236	0,00034
784,415	0,00035
784,594	0,00045
784,773	0,00035
784,952	0,00045
785,132	0,00043
785,311	0,00051
785,49	0,00043
785,669	0,0004
785,848	0,00041
786,027	0,00034
786,206	0,00041
786,385	0,00046
786,564	0,00044
786,743	0,00049
786,922	0,00043
787,1	0,00057
787,279	0,00046
787,458	0,00052
787,637	0,00059
787,816	0,00061
787,995	0,00056
788,174	0,00053
788,352	0,00057
788,531	0,0005
788,71	0,00053
788,889	0,00045
789,067	0,00031
789,246	0,00037
789,425	0,00047
789,603	0,00036
789,782	0,0003
789,961	0,00034
790,139	0,00045
790,318	0,00043
790,496	0,00054
790,675	0,00057
790,853	0,00063
791,032	0,0007
791,211	0,00066
791,389	0,00047
791,568	0,00064
791,746	0,00071
791,924	0,00079
792,103	0,00064
792,281	0,00054
792,46	0,00049
792,638	0,00041
792,816	0,00048
792,995	0,00053
793,173	0,00045
793,351	0,00058
793,53	0,00052
793,708	0,00045
793,886	0,00036
794,064	0,00034
794,243	0,00044
794,421	0,00047
794,599	0,00046
794,777	0,00043
794,955	0,00026
795,133	0,00032
795,312	0,00025
795,49	0,00022
795,668	0,0002
795,846	0,00024
796,024	0,00037
796,202	0,00033
796,38	0,00018
796,558	0,00015
796,736	0,00002
796,914	0,00009
797,092	0,00001
797,27	-0,00004
797,448	-0,0001
797,626	-0,00009
797,803	-0,00016
797,981	-0,0003
798,159	-0,00035
798,337	-0,00027
798,515	-0,00023
798,693	-0,00021
798,87	-0,00027
799,048	-0,00019
799,226	-0,00008
799,404	-0,00014
799,581	-0,00011
799,759	-0,0001
799,937	-0,00007
800,114	-0,0001
800,292	-0,00015
800,469	-0,00006
800,647	-0,00001
800,825	0,00006
801,002	-0
801,18	-0,00009
801,357	0,00009
801,535	0,00014
801,712	0,00016
801,89	0,0002
802,067	0,00018
802,245	0,00015
802,422	0,00007
802,6	0,00008
802,777	0,00003
802,954	0,00013
803,132	0,00019
803,309	0,00014
803,486	-0,00004
803,664	-0,00005
803,841	0,00006
804,018	0,0001
804,195	0,00011
804,373	0,00012
804,55	0,00015
804,727	0,00024
804,904	0,00023
805,081	0,00027
805,259	0,00019
805,436	0,00012
805,613	0,00013
805,79	0,00009
805,967	0,00012
806,144	0,00019
806,321	0,00006
806,498	0,00011
806,675	0,00013
806,852	0,00002
807,029	-0,00006
807,206	-0,00004
807,383	0,00027
807,56	0,00033
807,737	0,00019
807,914	0,00026
808,091	0,00027
808,268	0,00052
808,444	0,00049
808,621	0,00047
808,798	0,00034
808,975	0,00041
809,152	0,00039
809,328	0,00034
809,505	0,00019
809,682	0,00023
809,858	0,00016
810,035	0,00022
810,212	0,00005
810,388	0,00007
810,565	0,00022
810,742	0,00027
810,918	0,00025
811,095	0,00024
811,271	0,00018
811,448	0,00023
811,625	0,00015
811,801	0,00006
811,978	-0,00002
812,154	-0,00009
812,33	-0,00009
812,507	-0,00016
812,683	-0,00011
812,86	-0,0001
813,036	0,00007
813,212	0,00008
813,389	-0,00003
813,565	0,00001
813,741	0,00018
813,918	0,00028
814,094	0,00047
814,27	0,00041
814,447	0,00036
814,623	0,00048
814,799	0,00047
814,975	0,00029
815,151	0,00028
815,328	0,0004
815,504	0,00037
815,68	0,00027
815,856	0,0002
816,032	0,00009
816,208	0,00011
816,384	0,00004
816,56	0,00001
816,736	-0,00007
816,912	-0,00004
817,088	0,00004
817,264	0,00006
817,44	0,00007
817,616	0,00013
817,792	0,00008
817,968	0,00017
818,144	0,00039
818,32	0,00038
818,495	0,00054
818,671	0,00058
818,847	0,00052
819,023	0,00048
819,199	0,00062
819,374	0,00077
819,55	0,00063
819,726	0,00055
819,902	0,0006
820,077	0,00037
820,253	0,00036
820,429	0,0003
820,604	0,00042
820,78	0,00056
820,956	0,00054
821,131	0,00038
821,307	0,00036
821,482	0,00041
821,658	0,00063
821,833	0,0003
822,009	0,00027
822,184	0,00023
822,36	0,00013
822,535	-0,0001
822,711	-0,00017
822,886	-0,0001
823,061	-0,00022
823,237	-0,00029
823,412	-0,00022
823,587	-0,00031
823,763	-0,00025
823,938	-0,00026
824,113	-0,00022
824,289	-0,0003
824,464	-0,00012
824,639	0,00001
824,814	-0,00023
824,99	-0,0001
825,165	0,00008
825,34	0,00004
825,515	0,0001
825,69	0,00025
825,865	0,00025
826,04	0,00045
826,215	0,00073
826,39	0,00088
826,566	0,00089
826,741	0,00102
826,916	0,00117
827,091	0,00087
827,265	0,00095
827,44	0,00088
827,615	0,00085
827,79	0,00078
827,965	0,00064
828,14	0,00047
828,315	0,00033
828,49	0,00019
828,665	0,00026
828,839	0,00007
829,014	0,00014
829,189	-0,00003
829,364	0
829,538	0,00017
829,713	0,00025
829,888	0,00022
830,063	0,00017
830,237	-0,00007
830,412	0,00006
830,587	0,00003
830,761	0,00024
830,936	0,00022
831,11	0,00024
831,285	0,00014
831,459	0,00013
831,634	0,00006
831,809	0,00016
831,983	0,00008
832,157	0,0004
832,332	0,00021
832,506	0,00021
832,681	0,00004
832,855	-0,00002
833,03	-0,00005
833,204	-0,0001
833,378	-0,00023
833,553	-0,00028
833,727	-0,00026
833,901	-0,00014
834,076	-0,00007
834,25	-0,00001
834,424	-0,00005
834,598	0,00016
834,773	0,00039
834,947	0,00074
835,121	0,00086
835,295	0,00078
835,469	0,00086
835,643	0,0008
835,817	0,00078
835,991	0,00051
836,166	0,00058
836,34	0,00075
836,514	0,00063
836,688	0,0006
836,862	0,0003
837,036	0,00018
837,21	0,00042
837,384	0,00051
837,557	0,00053
837,731	0,00048
837,905	0,00064
838,079	0,00058
838,253	0,00041
838,427	0,00034
838,601	0,00018
838,774	0,00022
838,948	0,0003
839,122	0,00012
839,296	0,00029
839,469	0,00047
839,643	0,00029
839,817	0,00012
839,991	-0,0001
840,164	-0,00005
840,338	-0,00018
840,512	-0,00002
840,685	0,00003
840,859	0,00015
841,032	0,00005
841,206	0,00002
841,379	-0,00024
841,553	-0,00011
841,726	0,00007
841,9	0,00039
842,073	0,00052
842,247	0,0007
842,42	0,00063
842,594	0,00058
842,767	0,00062
842,94	0,0007
843,114	0,00076
843,287	0,0008
843,46	0,00087
843,634	0,00044
843,807	0,00018
843,98	0,00005
844,154	0,00008
844,327	0,00001
844,5	0,00015
844,673	0,00016
844,846	0,00007
845,02	-0,00011
845,193	-0,00015
845,366	-0,00003
845,539	0,00034
845,712	0,00062
845,885	0,00041
846,058	0,00034
846,231	0,00041
846,404	0,00031
846,577	0,00021
846,75	0,00043
846,923	0,00037
847,096	0,00031
847,269	0,00028
847,442	0,0002
847,615	0,00017
847,788	0,00043
847,961	0,00051
848,133	0,00058
848,306	0,0006
848,479	0,00048
848,652	0,00039
848,825	0,00046
848,997	0,00061
849,17	0,00034
849,343	0,0005
849,515	0,00038
849,688	0,00029
849,861	0,00018
850,033	0,00012
850,206	0,00006
850,379	0,00018
850,551	0,00019
850,724	0,00016
850,896	-0,00004
851,069	0,00023
851,241	0,00001
851,414	0,00009
851,586	0,00018
851,759	0,00022
851,931	0,00019
852,104	0,00022
852,276	0,00012
852,449	0,00014
852,621	0,00023
852,793	0,00034
852,966	0,00037
853,138	0,00063
853,31	0,00059
853,483	0,0006
853,655	0,00058
853,827	0,00054
853,999	0,00049
854,172	0,00049
854,344	0,00066
854,516	0,00063
854,688	0,00057
854,86	0,00049
855,032	0,00019
855,204	0,00022
855,377	0,00011
855,549	-0,00009
855,721	-0,00022
855,893	-0,00008
856,065	-0,00002
856,237	-0,0002
856,409	-0,00029
856,581	-0,00019
856,753	0,00003
856,924	0,0002
857,096	0,00023
857,268	0,00044
857,44	0,00064
857,612	0,00084
857,784	0,00067
857,956	0,00089
858,127	0,00103
858,299	0,00086
858,471	0,00095
858,643	0,00063
858,814	0,00055
858,986	0,00047
859,158	0,00028
859,33	0,00039
859,501	0,00017
859,673	0,00028
859,844	0,00013
860,016	-0,00007
860,188	0,00008
860,359	0,00002
860,531	0,0001
860,702	0,00008
860,874	-0,0001
861,045	-0,00017
861,217	-0,00036
861,388	-0,00017
861,56	-0,00043
861,731	-0,00044
861,902	-0,00021
862,074	-0,00029
862,245	-0,00022
862,417	-0,00023
862,588	-0,00033
862,759	-0,00019
862,931	-0,0001
863,102	0,00005
863,273	0,00004
863,444	0,00013
863,616	0,00024
863,787	0,00001
863,958	0,00003
864,129	0,00006
864,3	-0,00006
864,471	0,00002
864,642	0,00012
864,814	-0,00011
864,985	-0,00025
865,156	-0,00031
865,327	-0,00012
865,498	0,00002
865,669	-0,00007
865,84	0,0001
866,011	-0,00004
866,182	0
866,353	-0,00008
866,523	-0,00044
866,694	-0,00015
866,865	-0,00022
867,036	-0,00033
867,207	-0,00061
867,378	-0,00106
867,549	-0,00115
867,719	-0,00129
867,89	-0,00137
868,061	-0,00124
868,232	-0,00112
868,402	-0,00095
868,573	-0,00108
868,744	-0,0007
868,914	-0,00042
869,085	-0,00058
869,256	-0,0005
869,426	-0,00047
869,597	-0,00056
869,767	-0,00063
869,938	-0,00055
870,108	-0,00056
870,279	-0,00048
870,449	-0,00046
870,62	-0,00103
870,79	-0,001
870,961	-0,00041
871,131	-0,00031
871,302	0,0001
871,472	0,00052
871,642	0,00055
871,813	0,00043
871,983	0,00035
872,153	0,00039
872,324	0,00039
872,494	0,00055
872,664	0,00045
872,835	0,00037
873,005	0,00053
873,175	0,00024
873,345	-0,00026
873,515	-0,00034
873,685	-0,00032
873,856	0,00002
874,026	0,00013
874,196	0,0001
874,366	0,00024
874,536	0,00036
874,706	0,00014
874,876	-0,00015
875,046	-0,00026
875,216	-0,00014
875,386	0,00017
875,556	0,00032
875,726	-0,00033
875,896	-0,00045
876,066	-0,00031
876,236	-0,00064
876,405	-0,00059
876,575	-0,00075
876,745	-0,00046
876,915	0,00013
877,085	0,0003
877,254	0,00032
877,424	0,00039
877,594	0,00089
877,764	0,00081
877,933	0,0007
878,103	0,00081
878,273	0,00068
878,442	0,00074
878,612	0,00034
878,781	-0,00027
878,951	-0,00025
879,121	-0,00036
879,29	-0,00059
879,46	-0,00054
879,629	-0,0001
879,799	0,00007
879,968	0,00028
880,138	0,00064
880,307	0,00091
880,476	0,00118
880,646	0,00141
880,815	0,00123
880,985	0,00123
881,154	0,00108
881,323	0,00096
881,493	0,00099
881,662	0,00074
881,831	0,0009
882	0,00075
882,17	0,00074
882,339	0,00058
882,508	0,00064
882,677	0,0009
882,846	0,00111
883,016	0,00137
883,185	0,00111
883,354	0,00064
883,523	0,00057
883,692	0,00018
883,861	0,0001
884,03	-0,00034
884,199	-0,00006
884,368	0,00017
884,537	-0,0002
884,706	-0,00037
884,875	-0,00048
885,044	0,00008
885,213	0,00037
885,382	0,00057
885,55	0,00073
885,719	0,00051
885,888	0,00067
886,057	0,00037
886,226	-0,00008
886,395	0,00016
886,563	0,00005
886,732	0,00023
886,901	-0,00018
887,069	-0,00023
887,238	-0,00043
887,407	-0,00041
887,575	-0,00052
887,744	-0,00042
887,913	-0,00045
888,081	-0,0001
888,25	-0,00008
888,418	0,00021
888,587	-0,00009
888,755	-0,00004
888,924	0,00017
889,092	0,00024
889,261	0,00034
889,429	0,0005
889,598	0,00061
889,766	0,00079
889,935	0,0005
890,103	0,00034
890,271	-0,00004
890,44	-0,00017
890,608	-0,00019
890,776	-0,00059
890,944	-0,00028
891,113	-0,00028
891,281	-0,00032
891,449	-0,00024
891,617	-0,00039
891,786	-0,00053
891,954	-0,00046
892,122	0
892,29	0,00033
892,458	0,00024
892,626	0,00053
892,794	0,00033
892,962	0,00035
893,13	0,00048
893,298	0,00041
893,466	0,00063
