Data from Chemiepractica_Absorbance__9__11-33-33-104.txt Node

Date: Mon Dec 09 11:33:33 CET 2024
User: r0948668
Spectrometer: USB4F07138
Trigger mode: 4
Integration Time (sec): 6,000000E-3
Scans to average: 20
Electric dark correction enabled: true
Nonlinearity correction enabled: false
Boxcar width: 5
XAxis mode: Wavelengths
Number of Pixels in Spectrum: 3648
>>>>>Begin Spectral Data<<<<<
176,779	-0
176,999	-0
177,218	-0
177,438	-1,51978
177,658	-0,76064
177,878	-0,4477
178,097	-0,16977
178,317	-0,28297
178,537	-0,13183
178,757	-0,03427
178,976	0,28625
179,196	1,4318
179,416	-0,32779
179,635	0,27908
179,855	0,1152
180,075	0,07478
180,294	0,01517
180,514	-0,03483
180,734	-0,01068
180,953	-0,03816
181,173	-0,02726
181,392	-0,03148
181,612	-0,02242
181,832	-0,01495
182,051	-0,02547
182,271	-0,0233
182,49	-0,02795
182,71	-0,02026
182,929	-0,01309
183,149	-0,02607
183,368	-0,00171
183,588	-0,00955
183,807	-0,00275
184,027	0,01063
184,246	0,00937
184,466	0,01392
184,685	0,01605
184,905	0,0067
185,124	0,00787
185,344	0,00987
185,563	0,01373
185,782	0,00605
186,002	0,00469
186,221	0,00001
186,44	-0,01543
186,66	-0,02661
186,879	-0,02485
187,099	-0,0355
187,318	-0,02701
187,537	-0,03094
187,756	-0,01695
187,976	-0,01918
188,195	-0,01325
188,414	-0,00217
188,634	-0,00034
188,853	0,00544
189,072	0,01661
189,291	0,00471
189,511	0,01954
189,73	0,02221
189,949	0,01999
190,168	0,00578
190,387	0,01728
190,607	0,01771
190,826	0,01016
191,045	-0,0014
191,264	0,00269
191,483	-0,00958
191,702	0,00688
191,921	0,01194
192,141	0,02089
192,36	0,01321
192,579	0,01774
192,798	0,0138
193,017	-0,00104
193,236	0,00629
193,455	0,01818
193,674	0,01658
193,893	0,02568
194,112	0,02355
194,331	0,00561
194,55	-0,00049
194,769	-0,0026
194,988	-0,00275
195,207	0,00753
195,426	0,01434
195,645	0,02293
195,864	0,02658
196,083	0,01829
196,302	0,01989
196,521	0,01994
196,739	0,0217
196,958	0,0153
197,177	0,02121
197,396	0,0308
197,615	0,01884
197,834	0,00874
198,053	-0,01849
198,271	-0,02569
198,49	-0,01117
198,709	-0,01977
198,928	-0,01869
199,147	-0,01055
199,365	0,00567
199,584	-0,00167
199,803	-0,01401
200,022	-0,00861
200,24	0,00699
200,459	0,01616
200,678	0,0257
200,897	0,0175
201,115	0,02434
201,334	0,02978
201,553	0,01826
201,771	0,00469
201,99	0,01155
202,209	0,02252
202,427	0,02005
202,646	0,00977
202,864	0,00767
203,083	-0,00289
203,302	0,00007
203,52	0,00607
203,739	-0,00683
203,957	0,00357
204,176	0,00543
204,394	0,00263
204,613	-0,00893
204,831	0,00201
205,05	0,00135
205,268	0,01263
205,487	0,01373
205,705	0,00316
205,924	0,00079
206,142	0,01955
206,361	0,01415
206,579	0,01292
206,798	0,02071
207,016	0,01251
207,234	-0,0054
207,453	0,00281
207,671	0,01141
207,89	0,01991
208,108	0,02603
208,326	0,03021
208,545	0,01005
208,763	0,0223
208,981	0,01495
209,2	-0,00054
209,418	0,01171
209,636	0,01154
209,855	0,0162
210,073	0,00554
210,291	-0,00699
210,509	-0,00559
210,728	-0,01583
210,946	-0,00219
211,164	-0,01377
211,382	-0,01001
211,6	0,00657
211,819	0,0003
212,037	0,00108
212,255	-0,01437
212,473	-0,01348
212,691	-0,00556
212,909	-0,00315
213,128	-0,01315
213,346	-0,01408
213,564	-0,00674
213,782	-0,00613
214	0,00193
214,218	0,00839
214,436	0,01085
214,654	0,00868
214,872	-0,00108
215,09	-0,019
215,308	-0,02462
215,526	-0,01354
215,744	-0,02083
215,962	-0,02686
216,18	-0,04299
216,398	-0,05258
216,616	-0,06066
216,834	-0,06295
217,052	-0,04985
217,27	-0,05264
217,488	-0,03614
217,706	-0,03172
217,924	-0,02723
218,142	-0,02702
218,36	-0,01748
218,578	0,00694
218,795	0,00994
219,013	0,01534
219,231	0,0105
219,449	0,00024
219,667	0,00508
219,885	0,00563
220,102	0,01538
220,32	0,0089
220,538	0,01248
220,756	0,00464
220,973	0,00867
221,191	0,00222
221,409	0,00692
221,627	0,00647
221,844	0,0062
222,062	0,01709
222,28	0,01551
222,497	0,00149
222,715	0,00092
222,933	-0,01103
223,15	-0,02125
223,368	-0,01974
223,586	-0,00231
223,803	-0,00435
224,021	0,0041
224,239	0,00803
224,456	0,00162
224,674	-0,00428
224,891	0,01022
225,109	0,0051
225,326	0,00934
225,544	0,01931
225,762	-0,0084
225,979	-0,01671
226,197	-0,01883
226,414	-0,02654
226,632	-0,02327
226,849	-0,03067
227,066	-0,02049
227,284	-0,03654
227,501	-0,02215
227,719	-0,0063
227,936	-0,00165
228,154	0,0221
228,371	0,01303
228,588	0,01068
228,806	0,01769
229,023	0,02044
229,241	0,03299
229,458	0,02527
229,675	0,03709
229,893	0,02047
230,11	0,01477
230,327	0,00859
230,545	0,00032
230,762	0,0037
230,979	0,01147
231,196	0,01362
231,414	0,00369
231,631	-0,00213
231,848	-0,00767
232,065	-0,02022
232,283	-0,01507
232,5	-0,02147
232,717	-0,02341
232,934	-0,02847
233,151	-0,02199
233,368	-0,02289
233,586	-0,03541
233,803	-0,02688
234,02	-0,02353
234,237	-0,022
234,454	-0,00549
234,671	0,01584
234,888	0,02128
235,105	0,02561
235,322	0,02649
235,54	0,01782
235,757	0,02181
235,974	0,03511
236,191	0,03091
236,408	0,03011
236,625	0,03185
236,842	0,02512
237,059	0,01236
237,276	0,00308
237,493	0,0047
237,71	0,01629
237,926	0,01764
238,143	0,01004
238,36	0,00817
238,577	0,00287
238,794	-0,00999
239,011	-0,00399
239,228	-0,00989
239,445	-0,0098
239,662	0,00324
239,878	0,00836
240,095	0,00432
240,312	0,00609
240,529	0,00877
240,746	0,00955
240,963	0,0101
241,179	0,01533
241,396	0,01414
241,613	0,01501
241,83	0,01421
242,046	0,00346
242,263	0,00413
242,48	-0,0022
242,697	-0,00812
242,913	0,00073
243,13	-0,00736
243,347	0,0003
243,563	0,00515
243,78	0,00456
243,997	0,01148
244,213	0,0059
244,43	0,01693
244,646	0,01467
244,863	0,02557
245,08	0,0317
245,296	0,02374
245,513	0,02511
245,729	0,02288
245,946	0,02717
246,162	0,02391
246,379	0,01268
246,595	0,01529
246,812	0,00545
247,028	0,0047
247,245	-0,00079
247,461	-0,00424
247,678	-0,01128
247,894	-0,00408
248,111	-0,01405
248,327	-0,01715
248,544	-0,01822
248,76	-0,01265
248,976	-0,00018
249,193	0,00172
249,409	-0,00046
249,626	0,00611
249,842	0,00582
250,058	0,01411
250,275	0,01146
250,491	0,01438
250,707	0,01676
250,924	0,02746
251,14	0,03097
251,356	0,02669
251,572	0,02507
251,789	0,02369
252,005	0,01251
252,221	0,01966
252,437	0,00883
252,654	0,00271
252,87	0,00364
253,086	0,0086
253,302	0,00344
253,518	-0,0038
253,735	-0,00779
253,951	-0,01145
254,167	-0,01636
254,383	-0,02441
254,599	-0,02791
254,815	-0,01693
255,031	-0,02503
255,247	-0,02468
255,463	-0,03173
255,68	-0,01994
255,896	-0,013
256,112	-0,01781
256,328	-0,01071
256,544	-0,00515
256,76	0,00993
256,976	0,00584
257,192	0,00512
257,408	0,01963
257,624	0,02654
257,84	0,02895
258,056	0,02365
258,272	0,02186
258,487	0,01952
258,703	0,01437
258,919	0,02232
259,135	0,0119
259,351	0,0225
259,567	0,02636
259,783	0,02162
259,999	0,01893
260,215	0,0166
260,43	0,00134
260,646	0,00367
260,862	0,01113
261,078	0,0136
261,294	-0,00879
261,509	0,01176
261,725	0,01315
261,941	0,01163
262,157	0,01882
262,372	0,01828
262,588	0,0158
262,804	0,02329
263,019	0,02744
263,235	0,0277
263,451	0,02967
263,667	0,04407
263,882	0,03573
264,098	0,03541
264,313	0,03812
264,529	0,03011
264,745	0,03416
264,96	0,02406
265,176	0,02642
265,391	0,01885
265,607	0,01722
265,823	0,0107
266,038	0,0121
266,254	0,01147
266,469	0,0115
266,685	0,00792
266,9	0,00753
267,116	0,00617
267,331	0,02497
267,547	0,03039
267,762	0,0261
267,978	0,02054
268,193	0,02678
268,408	0,02175
268,624	0,02403
268,839	0,01707
269,055	0,00525
269,27	0,00644
269,485	0,00858
269,701	0,0054
269,916	0,00281
270,132	0,01355
270,347	0,02283
270,562	0,02723
270,777	0,02854
270,993	0,02861
271,208	0,02611
271,423	0,04234
271,639	0,04384
271,854	0,03236
272,069	0,01983
272,284	0,01402
272,5	0,00284
272,715	-0,00164
272,93	-0,01356
273,145	-0,01636
273,36	-0,0124
273,576	-0,00734
273,791	-0,02315
274,006	-0,01947
274,221	-0,01351
274,436	0,00063
274,651	0,00399
274,866	0,01449
275,081	0,02188
275,296	0,02583
275,512	0,02834
275,727	0,02602
275,942	0,02764
276,157	0,02992
276,372	0,03808
276,587	0,03752
276,802	0,03383
277,017	0,03801
277,232	0,03721
277,447	0,02866
277,662	0,02483
277,877	0,01758
278,092	0,01329
278,306	0,01544
278,521	0,02681
278,736	0,01674
278,951	0,0228
279,166	0,01441
279,381	0,00948
279,596	0,00557
279,811	0,00978
280,025	0,01189
280,24	0,01835
280,455	0,01576
280,67	0,00215
280,885	-0,00642
281,099	-0,0149
281,314	-0,02837
281,529	-0,02435
281,744	-0,01629
281,959	-0,0165
282,173	-0,01554
282,388	-0,00287
282,603	-0,00059
282,817	0,00535
283,032	0,012
283,247	0,01199
283,461	0,02877
283,676	0,02855
283,891	0,02312
284,105	0,02449
284,32	0,03534
284,535	0,03519
284,749	0,02896
284,964	0,03663
285,178	0,03658
285,393	0,0396
285,607	0,03565
285,822	0,03747
286,036	0,05316
286,251	0,05728
286,465	0,05375
286,68	0,04926
286,894	0,05214
287,109	0,05178
287,323	0,03649
287,538	0,03192
287,752	0,02859
287,967	0,03372
288,181	0,01694
288,396	0,0158
288,61	0,03001
288,824	0,03657
289,039	0,03465
289,253	0,02216
289,467	0,02011
289,682	0,01502
289,896	0,02237
290,11	0,02818
290,325	0,03244
290,539	0,03187
290,753	0,03207
290,968	0,0139
291,182	0,00608
291,396	0,00371
291,61	0,0151
291,825	0,01687
292,039	0,03247
292,253	0,02593
292,467	0,01493
292,681	0,01755
292,896	0,01436
293,11	-0,00537
293,324	0,00924
293,538	0,01273
293,752	0,01019
293,966	0,00427
294,18	0,00561
294,394	-0,00386
294,608	-0,00026
294,823	0,00085
295,037	-0,00148
295,251	0,00796
295,465	0,01871
295,679	0,01077
295,893	0,0102
296,107	0,0125
296,321	0,02226
296,535	0,01824
296,749	0,01921
296,963	0,00632
297,177	0,00522
297,391	0,00223
297,604	0,00035
297,818	-0,00072
298,032	-0,01192
298,246	-0,01467
298,46	-0,00589
298,674	-0,0102
298,888	-0,00246
299,102	0,00584
299,315	0,02061
299,529	0,03344
299,743	0,03994
299,957	0,03641
300,171	0,03268
300,385	0,04849
300,598	0,05083
300,812	0,04311
301,026	0,04238
301,24	0,03746
301,453	0,03703
301,667	0,03361
301,881	0,0284
302,094	0,01895
302,308	0,01875
302,522	0,03506
302,735	0,02717
302,949	0,02558
303,163	0,02309
303,376	0,0157
303,59	0,02096
303,803	0,00998
304,017	0,00862
304,231	0,00548
304,444	0,00495
304,658	0,00905
304,871	0,0009
305,085	0,00251
305,298	-0,00434
305,512	-0,00516
305,725	-0,00373
305,939	-0,01381
306,152	-0,01613
306,366	-0,0236
306,579	-0,01879
306,793	-0,01207
307,006	-0,00824
307,22	-0,00725
307,433	-0,01026
307,646	-0,0105
307,86	-0,0031
308,073	-0,00022
308,286	-0,00197
308,5	0,01122
308,713	0,01309
308,926	0,01395
309,14	0,00905
309,353	0,00381
309,566	-0,00596
309,78	-0,00415
309,993	-0,00316
310,206	-0,00992
310,419	-0,0033
310,633	0,00123
310,846	0,00426
311,059	0,01264
311,272	0,01087
311,486	0,01489
311,699	0,01016
311,912	0,0128
312,125	0,01467
312,338	0,01874
312,551	0,02261
312,764	0,02234
312,978	0,03072
313,191	0,02698
313,404	0,01372
313,617	0,01288
313,83	0,01184
314,043	0,02142
314,256	0,02441
314,469	0,01191
314,682	0,01335
314,895	0,0126
315,108	0,01053
315,321	0,00314
315,534	0,00026
315,747	0,01561
315,96	0,0145
316,173	0,01918
316,386	0,02039
316,599	0,02341
316,812	0,03587
317,025	0,03873
317,237	0,03775
317,45	0,03055
317,663	0,03423
317,876	0,03926
318,089	0,03981
318,302	0,03772
318,515	0,0304
318,727	0,02672
318,94	0,02276
319,153	0,02158
319,366	0,01884
319,578	0,01688
319,791	0,02831
320,004	0,0186
320,217	0,01589
320,429	0,01771
320,642	0,02321
320,855	0,02101
321,067	0,01716
321,28	0,02194
321,493	0,02299
321,705	0,0187
321,918	0,01729
322,131	0,00531
322,343	0,00916
322,556	0,01383
322,768	0,00016
322,981	-0,00553
323,194	-0,00379
323,406	0,00063
323,619	-0,00451
323,831	0,00586
324,044	0,00547
324,256	0,00765
324,469	0,00297
324,681	0,00438
324,894	-0,00324
325,106	0,00391
325,319	0,00061
325,531	0,00538
325,743	-0,00088
325,956	0,00717
326,168	-0,00284
326,381	-0,00031
326,593	-0,01322
326,805	-0,0046
327,018	-0,00163
327,23	-0,0051
327,442	-0,00438
327,655	-0,00568
327,867	-0,00464
328,079	0,00268
328,292	0,00263
328,504	0,01171
328,716	0,00545
328,928	0,02746
329,141	0,03293
329,353	0,02621
329,565	0,02998
329,777	0,02404
329,99	0,03416
330,202	0,03453
330,414	0,0261
330,626	0,0205
330,838	0,01567
331,05	0,01312
331,263	0,00447
331,475	0,00757
331,687	0,01309
331,899	0,01593
332,111	0,02081
332,323	0,01953
332,535	0,01774
332,747	0,02458
332,959	0,02064
333,171	0,02175
333,383	0,02268
333,595	0,02794
333,807	0,01962
334,019	0,01625
334,231	0,015
334,443	0,01157
334,655	0,00859
334,867	0,00955
335,079	0,00736
335,291	0,00456
335,503	0,00384
335,714	0,00903
335,926	0,00892
336,138	0,01428
336,35	0,01272
336,562	0,01334
336,774	0,01465
336,986	0,01746
337,197	0,01974
337,409	0,02297
337,621	0,02927
337,833	0,02887
338,044	0,03557
338,256	0,02549
338,468	0,02102
338,68	0,02167
338,891	0,0188
339,103	0,02193
339,315	0,01817
339,526	0,01012
339,738	-0,00319
339,95	-0,01376
340,161	-0,00731
340,373	-0,01939
340,585	-0,02057
340,796	-0,02558
341,008	-0,02406
341,219	-0,02108
341,431	-0,02609
341,642	-0,02569
341,854	-0,02593
342,065	-0,01
342,277	-0,00779
342,489	-0,01707
342,7	-0,01114
342,912	-0,00601
343,123	0,00067
343,334	0,00434
343,546	-0,00136
343,757	0,00349
343,969	0,00592
344,18	0,01032
344,392	0,00051
344,603	0,01816
344,814	0,02102
345,026	0,02416
345,237	0,02847
345,448	0,02681
345,66	0,01845
345,871	0,01941
346,082	0,01937
346,294	0,01979
346,505	0,01587
346,716	0,01536
346,927	0,00933
347,139	0,00974
347,35	0,00881
347,561	0,00444
347,772	-0,00096
347,984	0,00251
348,195	0,00765
348,406	-0,00252
348,617	-0,0014
348,828	-0,00068
349,039	-0,00186
349,251	-0,00445
349,462	-0,00822
349,673	-0,01304
349,884	-0,01207
350,095	-0,00947
350,306	-0,01115
350,517	-0,01033
350,728	-0,00397
350,939	-0,00446
351,15	0,00067
351,361	0,0035
351,572	0,00788
351,783	0,01469
351,994	0,01823
352,205	0,02472
352,416	0,02452
352,627	0,02537
352,838	0,02484
353,049	0,03027
353,26	0,02855
353,471	0,02008
353,682	0,02507
353,893	0,01929
354,103	0,01345
354,314	0,0094
354,525	0,0038
354,736	0,0098
354,947	0,01089
355,157	0,00778
355,368	0,00147
355,579	-0,00553
355,79	-0,00261
356,001	-0,00581
356,211	-0,00597
356,422	-0,01641
356,633	-0,00995
356,843	-0,01161
357,054	-0,01734
357,265	-0,0175
357,476	-0,0129
357,686	-0,01334
357,897	-0,00209
358,107	-0,00335
358,318	-0,00732
358,529	-0,00172
358,739	0,01227
358,95	0,013
359,16	0,01391
359,371	0,01286
359,582	0,0083
359,792	0,00869
360,003	0,01313
360,213	0,00234
360,424	0,00859
360,634	0,01701
360,845	0,01214
361,055	0,01291
361,266	0,01092
361,476	0,01902
361,686	0,0229
361,897	0,02819
362,107	0,0264
362,318	0,02483
362,528	0,02643
362,738	0,01908
362,949	0,01596
363,159	0,01627
363,369	0,01009
363,58	0,00309
363,79	-0,00655
364	-0,00799
364,211	-0,01005
364,421	-0,01439
364,631	-0,01573
364,842	-0,01534
365,052	-0,01223
365,262	-0,01482
365,472	-0,00829
365,682	-0,00743
365,893	-0,00484
366,103	-0,00124
366,313	0,00124
366,523	0,0051
366,733	0,00625
366,943	0,01211
367,154	0,01574
367,364	0,0225
367,574	0,0176
367,784	0,01155
367,994	0,02117
368,204	0,02471
368,414	0,02436
368,624	0,01905
368,834	0,01707
369,044	0,02283
369,254	0,0198
369,464	0,02134
369,674	0,01927
369,884	0,02211
370,094	0,02017
370,304	0,00908
370,514	0,01067
370,724	0,00598
370,934	0,00921
371,144	0,00735
371,353	0,00379
371,563	0,00325
371,773	0,00302
371,983	0,00398
372,193	0,00662
372,403	0,01247
372,612	0,01191
372,822	0,00873
373,032	0,01361
373,242	0,01464
373,452	0,0165
373,661	0,01586
373,871	0,01576
374,081	0,01411
374,29	0,0126
374,5	0,00969
374,71	0,00561
374,92	0,00823
375,129	0,00764
375,339	0,00252
375,549	0,00147
375,758	0,00631
375,968	0,0063
376,177	0,00545
376,387	0,00413
376,597	0,00441
376,806	0,01367
377,016	0,01454
377,225	0,01241
377,435	0,01183
377,644	0,01362
377,854	0,01287
378,063	0,00934
378,273	0,00923
378,482	0,01095
378,692	0,01523
378,901	0,01254
379,111	0,00688
379,32	0,01133
379,529	0,01048
379,739	0,01381
379,948	0,01641
380,158	0,02106
380,367	0,02406
380,576	0,02328
380,786	0,01734
380,995	0,01764
381,204	0,02246
381,414	0,02641
381,623	0,02365
381,832	0,0287
382,041	0,02765
382,251	0,0272
382,46	0,02427
382,669	0,01496
382,878	0,01502
383,088	0,01812
383,297	0,0187
383,506	0,0184
383,715	0,0138
383,924	0,0114
384,133	0,01034
384,342	0,00946
384,552	0,01092
384,761	0,01057
384,97	0,0164
385,179	0,01854
385,388	0,01972
385,597	0,01909
385,806	0,01889
386,015	0,01693
386,224	0,01763
386,433	0,01153
386,642	0,00959
386,851	0,00787
387,06	0,00856
387,269	0,00905
387,478	0,01033
387,687	0,01264
387,896	0,00825
388,105	0,00584
388,314	0,00719
388,523	0,00668
388,731	0,01055
388,94	0,01222
389,149	0,01362
389,358	0,0147
389,567	0,01795
389,776	0,01603
389,984	0,01357
390,193	0,01841
390,402	0,01818
390,611	0,01996
390,819	0,02087
391,028	0,02287
391,237	0,02281
391,446	0,01979
391,654	0,01647
391,863	0,01269
392,072	0,01283
392,28	0,01453
392,489	0,01073
392,698	0,00882
392,906	0,00695
393,115	0,00521
393,324	0,00627
393,532	0,00602
393,741	0,00382
393,949	0,00418
394,158	0,00307
394,366	0,00234
394,575	-0,00021
394,783	0,00209
394,992	0,00315
395,2	0,00252
395,409	0,0045
395,617	0,00153
395,826	0,00272
396,034	0,00471
396,243	0,00558
396,451	0,00646
396,66	0,00851
396,868	0,00961
397,076	0,00762
397,285	0,00539
397,493	0,00891
397,701	0,00915
397,91	0,00955
398,118	0,01225
398,326	0,01341
398,535	0,01242
398,743	0,01298
398,951	0,0133
399,159	0,01465
399,368	0,01651
399,576	0,01875
399,784	0,01718
399,992	0,01798
400,201	0,01774
400,409	0,01396
400,617	0,01349
400,825	0,01578
401,033	0,01775
401,241	0,01612
401,45	0,01682
401,658	0,01788
401,866	0,02157
402,074	0,0206
402,282	0,01839
402,49	0,01844
402,698	0,01905
402,906	0,01932
403,114	0,01926
403,322	0,01864
403,53	0,01996
403,738	0,01838
403,946	0,01651
404,154	0,01007
404,362	0,01003
404,57	0,00817
404,778	0,00789
404,986	0,00854
405,194	0,00992
405,402	0,00985
405,609	0,00688
405,817	0,00361
406,025	0,00604
406,233	0,00789
406,441	0,01142
406,649	0,0123
406,856	0,01455
407,064	0,01618
407,272	0,01545
407,48	0,01356
407,687	0,01182
407,895	0,01511
408,103	0,01778
408,311	0,01499
408,518	0,01235
408,726	0,01383
408,934	0,01626
409,141	0,01588
409,349	0,01072
409,557	0,01162
409,764	0,01226
409,972	0,0133
410,18	0,00942
410,387	0,00929
410,595	0,01039
410,802	0,01004
411,01	0,00821
411,217	0,00578
411,425	0,005
411,632	0,00931
411,84	0,0084
412,047	0,00575
412,255	0,00478
412,462	0,00728
412,67	0,00712
412,877	0,00656
413,085	0,0076
413,292	0,00848
413,499	0,0091
413,707	0,01032
413,914	0,00938
414,122	0,00907
414,329	0,01194
414,536	0,01273
414,744	0,01274
414,951	0,01265
415,158	0,0125
415,366	0,01168
415,573	0,01134
415,78	0,01079
415,987	0,00988
416,195	0,01139
416,402	0,01103
416,609	0,01257
416,816	0,01329
417,023	0,01356
417,231	0,01361
417,438	0,01325
417,645	0,01321
417,852	0,01184
418,059	0,01196
418,266	0,01042
418,473	0,0086
418,68	0,00898
418,888	0,00728
419,095	0,00754
419,302	0,00691
419,509	0,00615
419,716	0,00675
419,923	0,00831
420,13	0,00881
420,337	0,00863
420,544	0,01075
420,751	0,01199
420,958	0,01236
421,165	0,01295
421,371	0,01059
421,578	0,00978
421,785	0,00964
421,992	0,00971
422,199	0,00894
422,406	0,01001
422,613	0,00922
422,82	0,00894
423,026	0,00794
423,233	0,00731
423,44	0,00586
423,647	0,00807
423,854	0,00855
424,06	0,00944
424,267	0,00955
424,474	0,01023
424,681	0,00806
424,887	0,00861
425,094	0,00787
425,301	0,00936
425,507	0,00894
425,714	0,00921
425,921	0,00833
426,127	0,00843
426,334	0,00762
426,54	0,0075
426,747	0,00763
426,954	0,00892
427,16	0,00882
427,367	0,00976
427,573	0,00934
427,78	0,01034
427,986	0,00995
428,193	0,00952
428,399	0,01033
428,606	0,00981
428,812	0,01047
429,019	0,00931
429,225	0,00988
429,432	0,01112
429,638	0,01025
429,845	0,00982
430,051	0,00978
430,257	0,00906
430,464	0,01016
430,67	0,00969
430,876	0,0104
431,083	0,00917
431,289	0,01007
431,495	0,00999
431,702	0,00894
431,908	0,00786
432,114	0,00712
432,32	0,00786
432,527	0,00943
432,733	0,00764
432,939	0,00743
433,145	0,00762
433,351	0,00898
433,558	0,00877
433,764	0,00879
433,97	0,00791
434,176	0,00926
434,382	0,01057
434,588	0,00958
434,794	0,00955
435,001	0,01072
435,207	0,01016
435,413	0,00972
435,619	0,00935
435,825	0,00889
436,031	0,00871
436,237	0,00981
436,443	0,00993
436,649	0,00965
436,855	0,01098
437,061	0,01102
437,267	0,01138
437,473	0,01189
437,679	0,01373
437,884	0,01315
438,09	0,01309
438,296	0,0121
438,502	0,01067
438,708	0,01054
438,914	0,01081
439,12	0,0109
439,325	0,01114
439,531	0,01169
439,737	0,01118
439,943	0,00996
440,149	0,00966
440,354	0,01024
440,56	0,01104
440,766	0,01163
440,972	0,01202
441,177	0,01271
441,383	0,01186
441,589	0,01199
441,794	0,01052
442	0,01016
442,206	0,01074
442,411	0,01122
442,617	0,01049
442,822	0,01122
443,028	0,01146
443,234	0,01227
443,439	0,01216
443,645	0,01191
443,85	0,01197
444,056	0,0118
444,261	0,01358
444,467	0,01293
444,672	0,01231
444,878	0,01317
445,083	0,01294
445,289	0,0135
445,494	0,01278
445,699	0,01172
445,905	0,0125
446,11	0,01205
446,316	0,01345
446,521	0,01278
446,726	0,01304
446,932	0,01409
447,137	0,01436
447,342	0,01436
447,548	0,01405
447,753	0,01408
447,958	0,0148
448,164	0,01408
448,369	0,01414
448,574	0,01286
448,779	0,01292
448,984	0,01334
449,19	0,01284
449,395	0,01224
449,6	0,01186
449,805	0,01249
450,01	0,01262
450,215	0,0121
450,421	0,01314
450,626	0,01357
450,831	0,01365
451,036	0,01264
451,241	0,01302
451,446	0,01282
451,651	0,0135
451,856	0,01383
452,061	0,0135
452,266	0,01338
452,471	0,01401
452,676	0,01353
452,881	0,01351
453,086	0,0147
453,291	0,01612
453,496	0,0151
453,701	0,0158
453,906	0,01569
454,111	0,01514
454,316	0,01561
454,52	0,01574
454,725	0,0151
454,93	0,01461
455,135	0,01485
455,34	0,01469
455,545	0,01456
455,749	0,01536
455,954	0,0151
456,159	0,01442
456,364	0,01559
456,568	0,01567
456,773	0,01648
456,978	0,01698
457,182	0,0178
457,387	0,01773
457,592	0,01739
457,796	0,01689
458,001	0,0167
458,206	0,017
458,41	0,01796
458,615	0,01751
458,82	0,01736
459,024	0,01743
459,229	0,01793
459,433	0,01853
459,638	0,01851
459,842	0,01954
460,047	0,02015
460,251	0,02002
460,456	0,01978
460,66	0,02004
460,865	0,0202
461,069	0,02001
461,274	0,01919
461,478	0,01873
461,682	0,01823
461,887	0,01918
462,091	0,01888
462,296	0,01963
462,5	0,02031
462,704	0,02083
462,909	0,02058
463,113	0,02052
463,317	0,02049
463,522	0,02131
463,726	0,02195
463,93	0,02173
464,134	0,02107
464,339	0,02114
464,543	0,02058
464,747	0,02044
464,951	0,02025
465,155	0,02083
465,36	0,02174
465,564	0,02205
465,768	0,02157
465,972	0,02238
466,176	0,023
466,38	0,0235
466,584	0,02404
466,788	0,02405
466,993	0,02387
467,197	0,02411
467,401	0,0237
467,605	0,02285
467,809	0,02389
468,013	0,02514
468,217	0,02461
468,421	0,02432
468,625	0,02439
468,829	0,02403
469,033	0,02416
469,236	0,02507
469,44	0,02468
469,644	0,02461
469,848	0,02538
470,052	0,02516
470,256	0,02381
470,46	0,02426
470,664	0,02475
470,867	0,0248
471,071	0,02527
471,275	0,02563
471,479	0,02525
471,683	0,02593
471,886	0,02653
472,09	0,0264
472,294	0,02604
472,497	0,02694
472,701	0,02687
472,905	0,0271
473,109	0,0275
473,312	0,02745
473,516	0,02795
473,719	0,0283
473,923	0,02858
474,127	0,02865
474,33	0,02845
474,534	0,02908
474,737	0,02942
474,941	0,02951
475,145	0,02918
475,348	0,02893
475,552	0,02942
475,755	0,0295
475,959	0,0299
476,162	0,03033
476,366	0,03083
476,569	0,03148
476,772	0,03165
476,976	0,03186
477,179	0,03206
477,383	0,03251
477,586	0,03304
477,789	0,0332
477,993	0,03356
478,196	0,03361
478,399	0,03375
478,603	0,03372
478,806	0,03412
479,009	0,03399
479,213	0,03401
479,416	0,03382
479,619	0,03464
479,822	0,03495
480,026	0,0356
480,229	0,03549
480,432	0,03565
480,635	0,03553
480,838	0,03588
481,041	0,03565
481,245	0,03583
481,448	0,036
481,651	0,0367
481,854	0,03665
482,057	0,0367
482,26	0,0366
482,463	0,03704
482,666	0,03759
482,869	0,03815
483,072	0,03826
483,275	0,03901
483,478	0,03936
483,681	0,04015
483,884	0,04027
484,087	0,04069
484,29	0,04104
484,493	0,04118
484,696	0,04136
484,899	0,04159
485,102	0,04173
485,305	0,04188
485,508	0,04187
485,71	0,04259
485,913	0,04277
486,116	0,04308
486,319	0,04334
486,522	0,04357
486,725	0,04386
486,927	0,04429
487,13	0,0446
487,333	0,0451
487,536	0,04571
487,738	0,04645
487,941	0,04654
488,144	0,04685
488,346	0,04711
488,549	0,04712
488,752	0,04749
488,954	0,04792
489,157	0,04809
489,359	0,04833
489,562	0,0485
489,765	0,04853
489,967	0,04846
490,17	0,04885
490,372	0,04905
490,575	0,04917
490,777	0,04975
490,98	0,04996
491,182	0,05003
491,385	0,05042
491,587	0,05073
491,79	0,05126
491,992	0,05161
492,195	0,05202
492,397	0,05202
492,599	0,05223
492,802	0,05274
493,004	0,05295
493,207	0,05341
493,409	0,0539
493,611	0,05429
493,814	0,05464
494,016	0,05449
494,218	0,05487
494,42	0,05509
494,623	0,05581
494,825	0,05611
495,027	0,05643
495,229	0,05679
495,432	0,05709
495,634	0,05749
495,836	0,0578
496,038	0,0579
496,24	0,05875
496,442	0,05908
496,645	0,05961
496,847	0,05996
497,049	0,0604
497,251	0,06098
497,453	0,06148
497,655	0,06188
497,857	0,06235
498,059	0,06267
498,261	0,06322
498,463	0,06344
498,665	0,06392
498,867	0,06413
499,069	0,06477
499,271	0,06513
499,473	0,06569
499,675	0,06613
499,877	0,06639
500,079	0,06665
500,281	0,06691
500,482	0,06737
500,684	0,06783
500,886	0,06816
501,088	0,06877
501,29	0,06896
501,492	0,06932
501,693	0,06971
501,895	0,07014
502,097	0,07053
502,299	0,07109
502,5	0,07155
502,702	0,07202
502,904	0,07269
503,106	0,07344
503,307	0,07389
503,509	0,07435
503,711	0,07506
503,912	0,07535
504,114	0,07553
504,315	0,076
504,517	0,0764
504,719	0,07705
504,92	0,0775
505,122	0,07787
505,323	0,07805
505,525	0,0786
505,726	0,079
505,928	0,07919
506,129	0,07978
506,331	0,08052
506,532	0,08123
506,734	0,08166
506,935	0,08206
507,137	0,08243
507,338	0,08277
507,539	0,08322
507,741	0,08378
507,942	0,08421
508,143	0,08487
508,345	0,08521
508,546	0,0856
508,747	0,086
508,949	0,0867
509,15	0,08714
509,351	0,08783
509,553	0,08815
509,754	0,08897
509,955	0,08921
510,156	0,08986
510,357	0,09034
510,559	0,09071
510,76	0,09112
510,961	0,09185
511,162	0,09213
511,363	0,09268
511,564	0,09294
511,766	0,09381
511,967	0,09427
512,168	0,09489
512,369	0,09542
512,57	0,09587
512,771	0,09696
512,972	0,09752
513,173	0,09813
513,374	0,09884
513,575	0,0994
513,776	0,10028
513,977	0,1007
514,178	0,10136
514,379	0,10195
514,58	0,10258
514,781	0,10354
514,981	0,10403
515,182	0,10454
515,383	0,10497
515,584	0,10555
515,785	0,10627
515,986	0,10676
516,187	0,10737
516,387	0,10768
516,588	0,10825
516,789	0,1088
516,99	0,10908
517,19	0,10937
517,391	0,11019
517,592	0,11079
517,793	0,11135
517,993	0,11189
518,194	0,11258
518,395	0,1133
518,595	0,11402
518,796	0,11469
518,996	0,11536
519,197	0,11615
519,398	0,11697
519,598	0,11775
519,799	0,11838
519,999	0,11896
520,2	0,11963
520,4	0,12021
520,601	0,12094
520,801	0,12159
521,002	0,12203
521,202	0,12258
521,403	0,12331
521,603	0,12381
521,804	0,12414
522,004	0,12481
522,204	0,12554
522,405	0,1261
522,605	0,12658
522,806	0,12696
523,006	0,1276
523,206	0,12853
523,407	0,12947
523,607	0,1298
523,807	0,13052
524,007	0,13115
524,208	0,13174
524,408	0,13211
524,608	0,13287
524,808	0,13364
525,009	0,13425
525,209	0,13475
525,409	0,13524
525,609	0,13561
525,809	0,13642
526,009	0,13695
526,209	0,13761
526,41	0,13833
526,61	0,13933
526,81	0,13986
527,01	0,14032
527,21	0,14087
527,41	0,14169
527,61	0,14221
527,81	0,14274
528,01	0,14317
528,21	0,14388
528,41	0,14441
528,61	0,14482
528,81	0,14531
529,01	0,14587
529,21	0,1465
529,41	0,14692
529,609	0,14718
529,809	0,14783
530,009	0,14846
530,209	0,14901
530,409	0,14931
530,609	0,15001
530,808	0,15055
531,008	0,1511
531,208	0,15165
531,408	0,15233
531,608	0,15308
531,807	0,15381
532,007	0,15438
532,207	0,15475
532,406	0,1554
532,606	0,15599
532,806	0,15656
533,005	0,15704
533,205	0,15736
533,405	0,15771
533,604	0,15823
533,804	0,15878
534,003	0,15928
534,203	0,1597
534,403	0,16012
534,602	0,16064
534,802	0,16108
535,001	0,16154
535,201	0,16209
535,4	0,16248
535,6	0,16303
535,799	0,16339
535,998	0,16382
536,198	0,16417
536,397	0,16463
536,597	0,16513
536,796	0,16556
536,995	0,16614
537,195	0,16641
537,394	0,16679
537,594	0,16746
537,793	0,16811
537,992	0,16869
538,191	0,16909
538,391	0,16967
538,59	0,16986
538,789	0,17031
538,988	0,17049
539,188	0,17083
539,387	0,1715
539,586	0,17204
539,785	0,17242
539,984	0,17262
540,184	0,17272
540,383	0,17338
540,582	0,17359
540,781	0,17425
540,98	0,1747
541,179	0,1753
541,378	0,17575
541,577	0,17597
541,776	0,17623
541,975	0,17666
542,174	0,17704
542,373	0,17738
542,572	0,17725
542,771	0,17754
542,97	0,17792
543,169	0,17823
543,368	0,17842
543,567	0,17876
543,766	0,17889
543,965	0,17929
544,164	0,17937
544,362	0,1798
544,561	0,18028
544,76	0,181
544,959	0,18155
545,158	0,18177
545,356	0,18198
545,555	0,18231
545,754	0,18259
545,953	0,18312
546,151	0,18333
546,35	0,18376
546,549	0,18379
546,748	0,18388
546,946	0,18393
547,145	0,18399
547,344	0,18421
547,542	0,18453
547,741	0,18486
547,939	0,18487
548,138	0,18487
548,337	0,18505
548,535	0,18505
548,734	0,1852
548,932	0,1854
549,131	0,18549
549,329	0,18573
549,528	0,18586
549,726	0,18603
549,925	0,18618
550,123	0,18645
550,322	0,18679
550,52	0,18708
550,718	0,18743
550,917	0,18769
551,115	0,18775
551,313	0,18798
551,512	0,18826
551,71	0,18847
551,908	0,18875
552,107	0,18898
552,305	0,18924
552,503	0,18944
552,702	0,18953
552,9	0,18966
553,098	0,18995
553,296	0,19033
553,495	0,19062
553,693	0,19064
553,891	0,19082
554,089	0,19085
554,287	0,19087
554,485	0,191
554,683	0,19092
554,882	0,19108
555,08	0,19138
555,278	0,19158
555,476	0,19184
555,674	0,19202
555,872	0,19224
556,07	0,19239
556,268	0,19277
556,466	0,19312
556,664	0,19336
556,862	0,1936
557,06	0,19394
557,258	0,19421
557,456	0,19454
557,654	0,19479
557,851	0,19497
558,049	0,19504
558,247	0,19541
558,445	0,19562
558,643	0,19573
558,841	0,19597
559,039	0,19655
559,236	0,19692
559,434	0,19717
559,632	0,19733
559,83	0,19755
560,027	0,19767
560,225	0,19818
560,423	0,19831
560,62	0,19855
560,818	0,19881
561,016	0,19907
561,213	0,1992
561,411	0,19913
561,609	0,19937
561,806	0,1995
562,004	0,19972
562,202	0,20004
562,399	0,20027
562,597	0,20062
562,794	0,20086
562,992	0,20135
563,189	0,20169
563,387	0,20203
563,584	0,20258
563,782	0,20286
563,979	0,20318
564,177	0,20358
564,374	0,20399
564,571	0,20444
564,769	0,20487
564,966	0,20502
565,164	0,20522
565,361	0,20553
565,558	0,20587
565,756	0,206
565,953	0,20636
566,15	0,20687
566,347	0,2073
566,545	0,2078
566,742	0,20817
566,939	0,20849
567,136	0,20915
567,334	0,20967
567,531	0,21022
567,728	0,21065
567,925	0,21146
568,122	0,21187
568,319	0,21235
568,517	0,21284
568,714	0,21325
568,911	0,21375
569,108	0,21443
569,305	0,21502
569,502	0,2155
569,699	0,21603
569,896	0,21669
570,093	0,21695
570,29	0,21761
570,487	0,21798
570,684	0,21861
570,881	0,21933
571,078	0,21995
571,275	0,22036
571,472	0,22093
571,669	0,22131
571,866	0,2218
572,062	0,22223
572,259	0,223
572,456	0,22342
572,653	0,22416
572,85	0,2246
573,047	0,22495
573,243	0,22542
573,44	0,22583
573,637	0,22616
573,834	0,22687
574,03	0,22747
574,227	0,22803
574,424	0,2284
574,62	0,22894
574,817	0,2295
575,014	0,23014
575,21	0,23075
575,407	0,23144
575,604	0,23217
575,8	0,23281
575,997	0,23348
576,193	0,23408
576,39	0,23481
576,586	0,23546
576,783	0,23621
576,979	0,23682
577,176	0,23741
577,372	0,23814
577,569	0,23862
577,765	0,23923
577,962	0,24006
578,158	0,24061
578,355	0,24128
578,551	0,24184
578,747	0,24254
578,944	0,2432
579,14	0,24378
579,336	0,24436
579,533	0,2448
579,729	0,24545
579,925	0,24606
580,122	0,24648
580,318	0,24709
580,514	0,24761
580,71	0,24816
580,906	0,24882
581,103	0,24954
581,299	0,2501
581,495	0,25068
581,691	0,25119
581,887	0,25177
582,084	0,25233
582,28	0,25305
582,476	0,25359
582,672	0,25405
582,868	0,25454
583,064	0,25491
583,26	0,25529
583,456	0,25581
583,652	0,25622
583,848	0,25692
584,044	0,25737
584,24	0,25763
584,436	0,25797
584,632	0,25822
584,828	0,2586
585,024	0,25894
585,22	0,25924
585,416	0,25935
585,611	0,25974
585,807	0,25993
586,003	0,26034
586,199	0,26053
586,395	0,26103
586,591	0,26122
586,786	0,26155
586,982	0,26168
587,178	0,26201
587,374	0,26211
587,569	0,26246
587,765	0,26254
587,961	0,2628
588,156	0,26274
588,352	0,26278
588,548	0,26282
588,743	0,26283
588,939	0,26289
589,135	0,26308
589,33	0,26302
589,526	0,26309
589,721	0,26301
589,917	0,26298
590,112	0,26294
590,308	0,26287
590,503	0,26302
590,699	0,2628
590,894	0,26276
591,09	0,26269
591,285	0,26245
591,481	0,26227
591,676	0,26223
591,872	0,26204
592,067	0,26173
592,262	0,26146
592,458	0,26125
592,653	0,26105
592,848	0,26073
593,044	0,26037
593,239	0,26001
593,434	0,25961
593,629	0,25917
593,825	0,25861
594,02	0,25822
594,215	0,25787
594,41	0,25733
594,606	0,25672
594,801	0,25587
594,996	0,25541
595,191	0,25491
595,386	0,2542
595,581	0,25375
595,777	0,25328
595,972	0,25257
596,167	0,25182
596,362	0,25094
596,557	0,25032
596,752	0,24976
596,947	0,24918
597,142	0,24847
597,337	0,24751
597,532	0,24671
597,727	0,24573
597,922	0,24478
598,117	0,24391
598,312	0,24302
598,507	0,24214
598,701	0,2412
598,896	0,24015
599,091	0,23904
599,286	0,23803
599,481	0,23707
599,676	0,23612
599,87	0,23513
600,065	0,234
600,26	0,23308
600,455	0,23194
600,65	0,23088
600,844	0,22963
601,039	0,22832
601,234	0,22725
601,428	0,2261
601,623	0,2249
601,818	0,22381
602,012	0,22272
602,207	0,2215
602,402	0,22019
602,596	0,21891
602,791	0,21758
602,985	0,21648
603,18	0,21525
603,374	0,21405
603,569	0,21268
603,763	0,21144
603,958	0,21003
604,152	0,20864
604,347	0,20733
604,541	0,20599
604,736	0,20472
604,93	0,20347
605,125	0,20194
605,319	0,20056
605,513	0,19903
605,708	0,19763
605,902	0,1961
606,096	0,19468
606,291	0,19332
606,485	0,19179
606,679	0,19052
606,874	0,18902
607,068	0,18743
607,262	0,18609
607,456	0,18479
607,65	0,18337
607,845	0,18195
608,039	0,18069
608,233	0,17912
608,427	0,1775
608,621	0,17612
608,815	0,17446
609,01	0,17313
609,204	0,17189
609,398	0,17045
609,592	0,16898
609,786	0,16769
609,98	0,16642
610,174	0,16486
610,368	0,16355
610,562	0,1621
610,756	0,16067
610,95	0,15939
611,144	0,15787
611,338	0,15627
611,532	0,15477
611,726	0,15327
611,919	0,1518
612,113	0,15019
612,307	0,1489
612,501	0,14756
612,695	0,14627
612,889	0,14484
613,082	0,14336
613,276	0,14204
613,47	0,14081
613,664	0,13939
613,857	0,13797
614,051	0,13655
614,245	0,13517
614,439	0,13381
614,632	0,13243
614,826	0,131
615,02	0,12961
615,213	0,12842
615,407	0,12715
615,6	0,12582
615,794	0,12463
615,988	0,12328
616,181	0,12199
616,375	0,12077
616,568	0,11939
616,762	0,11805
616,955	0,1169
617,149	0,11563
617,342	0,11421
617,536	0,11292
617,729	0,11162
617,923	0,11043
618,116	0,10925
618,309	0,10798
618,503	0,10682
618,696	0,10563
618,889	0,10442
619,083	0,10309
619,276	0,10193
619,469	0,10073
619,663	0,09955
619,856	0,09828
620,049	0,09714
620,242	0,09611
620,436	0,09495
620,629	0,09382
620,822	0,09268
621,015	0,09151
621,209	0,09052
621,402	0,08957
621,595	0,08862
621,788	0,08762
621,981	0,08664
622,174	0,08553
622,367	0,08443
622,56	0,08342
622,753	0,08232
622,946	0,08135
623,139	0,08039
623,332	0,07941
623,525	0,07839
623,718	0,0773
623,911	0,07633
624,104	0,07545
624,297	0,07452
624,49	0,07372
624,683	0,07287
624,876	0,07201
625,069	0,07112
625,262	0,07037
625,454	0,06952
625,647	0,06866
625,84	0,06781
626,033	0,06694
626,226	0,06614
626,418	0,0653
626,611	0,06446
626,804	0,06362
626,997	0,0628
627,189	0,06205
627,382	0,06119
627,575	0,06041
627,767	0,05974
627,96	0,05903
628,153	0,05826
628,345	0,05751
628,538	0,05681
628,731	0,05605
628,923	0,05541
629,116	0,05481
629,308	0,05403
629,501	0,05342
629,693	0,05285
629,886	0,05209
630,078	0,05139
630,271	0,05085
630,463	0,05024
630,656	0,04955
630,848	0,04889
631,04	0,04826
631,233	0,04769
631,425	0,04715
631,617	0,04649
631,81	0,04581
632,002	0,04518
632,194	0,04472
632,387	0,04409
632,579	0,04346
632,771	0,04287
632,964	0,04241
633,156	0,04187
633,348	0,04127
633,54	0,04079
633,732	0,04023
633,925	0,03977
634,117	0,0395
634,309	0,03894
634,501	0,03845
634,693	0,03793
634,885	0,0375
635,077	0,03695
635,269	0,03643
635,462	0,03599
635,654	0,03553
635,846	0,03511
636,038	0,03459
636,23	0,03398
636,422	0,03347
636,614	0,03295
636,806	0,03268
636,997	0,03232
637,189	0,03188
637,381	0,03143
637,573	0,03101
637,765	0,03068
637,957	0,03022
638,149	0,02979
638,341	0,02942
638,532	0,02905
638,724	0,02876
638,916	0,02834
639,108	0,02791
639,299	0,02757
639,491	0,02727
639,683	0,02704
639,875	0,02663
640,066	0,02643
640,258	0,02606
640,45	0,02571
640,641	0,02545
640,833	0,0251
641,025	0,02479
641,216	0,02453
641,408	0,0242
641,599	0,02386
641,791	0,02353
641,982	0,02322
642,174	0,02283
642,366	0,02269
642,557	0,0224
642,748	0,02203
642,94	0,02173
643,131	0,02143
643,323	0,02106
643,514	0,02076
643,706	0,02056
643,897	0,02026
644,088	0,02001
644,28	0,01976
644,471	0,01951
644,662	0,01929
644,854	0,01916
645,045	0,01897
645,236	0,01865
645,428	0,01849
645,619	0,01833
645,81	0,0181
646,001	0,01773
646,193	0,01759
646,384	0,01729
646,575	0,01713
646,766	0,01695
646,957	0,01669
647,148	0,01646
647,339	0,0164
647,531	0,01627
647,722	0,01612
647,913	0,01583
648,104	0,01575
648,295	0,01546
648,486	0,01535
648,677	0,01495
648,868	0,01479
649,059	0,01464
649,25	0,01454
649,441	0,01433
649,632	0,01402
649,823	0,01388
650,013	0,01382
650,204	0,01365
650,395	0,01355
650,586	0,01353
650,777	0,01352
650,968	0,01339
651,159	0,01325
651,349	0,01299
651,54	0,01281
651,731	0,01271
651,922	0,01259
652,112	0,01247
652,303	0,01237
652,494	0,01221
652,684	0,012
652,875	0,01184
653,066	0,01169
653,256	0,01154
653,447	0,01148
653,638	0,01132
653,828	0,01129
654,019	0,01111
654,209	0,01099
654,4	0,01082
654,59	0,01072
654,781	0,01063
654,972	0,01048
655,162	0,01043
655,352	0,01026
655,543	0,01005
655,733	0,01007
655,924	0,01
656,114	0,00983
656,305	0,0097
656,495	0,00962
656,685	0,00945
656,876	0,0094
657,066	0,00928
657,256	0,00915
657,447	0,00921
657,637	0,00928
657,827	0,00915
658,017	0,00907
658,208	0,00899
658,398	0,00885
658,588	0,00876
658,778	0,00875
658,968	0,0086
659,159	0,00847
659,349	0,00834
659,539	0,00813
659,729	0,00804
659,919	0,00798
660,109	0,0078
660,299	0,0078
660,489	0,00783
660,679	0,00775
660,869	0,00765
661,059	0,00759
661,249	0,00748
661,439	0,00743
661,629	0,00723
661,819	0,00719
662,009	0,0071
662,199	0,00711
662,389	0,00699
662,579	0,00683
662,769	0,00678
662,959	0,00672
663,149	0,00671
663,338	0,00683
663,528	0,00686
663,718	0,00691
663,908	0,00676
664,097	0,00665
664,287	0,00659
664,477	0,00648
664,667	0,00643
664,856	0,00639
665,046	0,00626
665,236	0,00614
665,425	0,00603
665,615	0,00592
665,805	0,00586
665,994	0,00592
666,184	0,00592
666,373	0,00583
666,563	0,00583
666,753	0,00592
666,942	0,00581
667,132	0,00577
667,321	0,00572
667,511	0,00569
667,7	0,00561
667,889	0,00558
668,079	0,00553
668,268	0,00557
668,458	0,00553
668,647	0,00559
668,836	0,00545
669,026	0,00546
669,215	0,00552
669,404	0,00561
669,594	0,00556
669,783	0,00552
669,972	0,00552
670,162	0,0055
670,351	0,00534
670,54	0,00524
670,729	0,00508
670,919	0,00501
671,108	0,00494
671,297	0,00496
671,486	0,00483
671,675	0,00477
671,864	0,00473
672,053	0,00469
672,243	0,00463
672,432	0,00461
672,621	0,00461
672,81	0,00464
672,999	0,00457
673,188	0,00458
673,377	0,00448
673,566	0,00441
673,755	0,00441
673,944	0,00436
674,133	0,00428
674,322	0,00428
674,51	0,00429
674,699	0,00424
674,888	0,00412
675,077	0,00418
675,266	0,0041
675,455	0,00403
675,644	0,004
675,832	0,00392
676,021	0,00392
676,21	0,00395
676,399	0,00381
676,587	0,00371
676,776	0,00371
676,965	0,00367
677,153	0,00364
677,342	0,00364
677,531	0,00362
677,719	0,00356
677,908	0,00366
678,097	0,00366
678,285	0,00365
678,474	0,00372
678,662	0,00374
678,851	0,00381
679,039	0,00377
679,228	0,00376
679,416	0,00383
679,605	0,00381
679,793	0,00386
679,982	0,00377
680,17	0,00376
680,359	0,00377
680,547	0,0037
680,736	0,00375
680,924	0,00364
681,112	0,0037
681,301	0,0037
681,489	0,0036
681,677	0,00359
681,866	0,00351
682,054	0,00341
682,242	0,00336
682,43	0,00329
682,619	0,00316
682,807	0,00303
682,995	0,00299
683,183	0,0029
683,371	0,00293
683,559	0,00287
683,748	0,00288
683,936	0,00291
684,124	0,00296
684,312	0,00287
684,5	0,0027
684,688	0,00291
684,876	0,00296
685,064	0,00292
685,252	0,00296
685,44	0,00282
685,628	0,00284
685,816	0,00283
686,004	0,00282
686,192	0,00276
686,38	0,00275
686,568	0,00285
686,756	0,00266
686,944	0,00256
687,131	0,00257
687,319	0,00258
687,507	0,00262
687,695	0,00252
687,883	0,00246
688,07	0,00244
688,258	0,00241
688,446	0,00235
688,634	0,00242
688,821	0,00245
689,009	0,00253
689,197	0,00258
689,384	0,00262
689,572	0,00261
689,76	0,00269
689,947	0,00264
690,135	0,00259
690,323	0,00267
690,51	0,00269
690,698	0,00263
690,885	0,0026
691,073	0,00257
691,26	0,00252
691,448	0,00248
691,635	0,00251
691,823	0,00244
692,01	0,00249
692,197	0,00236
692,385	0,00232
692,572	0,00243
692,76	0,00249
692,947	0,00256
693,134	0,00261
693,322	0,00253
693,509	0,00237
693,696	0,00226
693,884	0,00233
694,071	0,00231
694,258	0,00243
694,445	0,00243
694,633	0,00238
694,82	0,00222
695,007	0,00222
695,194	0,0022
695,381	0,00226
695,568	0,00226
695,756	0,00232
695,943	0,00226
696,13	0,0022
696,317	0,00225
696,504	0,00223
696,691	0,0022
696,878	0,00226
697,065	0,00219
697,252	0,0022
697,439	0,00221
697,626	0,00227
697,813	0,00227
698	0,00216
698,187	0,0021
698,374	0,00206
698,561	0,00214
698,747	0,00214
698,934	0,00216
699,121	0,00216
699,308	0,00207
699,495	0,00201
699,682	0,00199
699,868	0,00194
700,055	0,00192
700,242	0,00189
700,429	0,00187
700,615	0,00179
700,802	0,00173
700,989	0,00167
701,175	0,00157
701,362	0,00159
701,549	0,00157
701,735	0,00156
701,922	0,00156
702,108	0,00171
702,295	0,00176
702,482	0,00169
702,668	0,0017
702,855	0,0017
703,041	0,00181
703,228	0,0019
703,414	0,00191
703,601	0,00192
703,787	0,00198
703,973	0,00198
704,16	0,00186
704,346	0,00194
704,533	0,00193
704,719	0,00186
704,905	0,00177
705,092	0,00169
705,278	0,00169
705,464	0,00166
705,65	0,00166
705,837	0,00156
706,023	0,00152
706,209	0,00155
706,395	0,00155
706,582	0,00156
706,768	0,00153
706,954	0,0017
707,14	0,00161
707,326	0,00158
707,512	0,0015
707,698	0,00155
707,885	0,00153
708,071	0,00152
708,257	0,00144
708,443	0,00146
708,629	0,00154
708,815	0,00151
709,001	0,00138
709,187	0,00134
709,373	0,0014
709,559	0,00141
709,745	0,00135
709,93	0,00126
710,116	0,00129
710,302	0,00141
710,488	0,00145
710,674	0,00147
710,86	0,00155
711,046	0,0017
711,231	0,00182
711,417	0,00172
711,603	0,00174
711,789	0,00169
711,974	0,00181
712,16	0,0017
712,346	0,00158
712,532	0,00146
712,717	0,00137
712,903	0,0013
713,089	0,00125
713,274	0,00123
713,46	0,00124
713,645	0,00125
713,831	0,0013
714,016	0,00132
714,202	0,00144
714,388	0,00163
714,573	0,00167
714,759	0,00166
714,944	0,00162
715,129	0,00154
715,315	0,00154
715,5	0,00154
715,686	0,00154
715,871	0,00155
716,057	0,00156
716,242	0,00157
716,427	0,00135
716,613	0,00128
716,798	0,00126
716,983	0,00134
717,168	0,00143
717,354	0,00146
717,539	0,00148
717,724	0,00143
717,909	0,00148
718,095	0,00149
718,28	0,00142
718,465	0,00151
718,65	0,00157
718,835	0,00155
719,02	0,00148
719,206	0,00142
719,391	0,00137
719,576	0,00125
719,761	0,00128
719,946	0,00118
720,131	0,00119
720,316	0,00127
720,501	0,00123
720,686	0,00115
720,871	0,00125
721,056	0,00131
721,241	0,0012
721,426	0,0012
721,61	0,00128
721,795	0,00124
721,98	0,00119
722,165	0,00123
722,35	0,00124
722,535	0,00122
722,719	0,0012
722,904	0,00111
723,089	0,001
723,274	0,00112
723,458	0,00106
723,643	0,00097
723,828	0,00101
724,013	0,001
724,197	0,00085
724,382	0,00075
724,567	0,00074
724,751	0,00087
724,936	0,00081
725,12	0,00085
725,305	0,00089
725,489	0,00094
725,674	0,00105
725,859	0,00109
726,043	0,00123
726,228	0,00141
726,412	0,00145
726,596	0,00141
726,781	0,00139
726,965	0,00151
727,15	0,00161
727,334	0,00155
727,518	0,00156
727,703	0,00157
727,887	0,00154
728,072	0,00144
728,256	0,00123
728,44	0,00123
728,624	0,00129
728,809	0,00116
728,993	0,00111
729,177	0,00107
729,361	0,00106
729,546	0,001
729,73	0,00095
729,914	0,00077
730,098	0,00081
730,282	0,0009
730,466	0,00088
730,65	0,0009
730,834	0,0009
731,019	0,00087
731,203	0,00084
731,387	0,00088
731,571	0,00085
731,755	0,00089
731,939	0,00092
732,123	0,00092
732,306	0,00096
732,49	0,00091
732,674	0,00081
732,858	0,00087
733,042	0,00085
733,226	0,00095
733,41	0,00093
733,594	0,00099
733,778	0,00099
733,961	0,0011
734,145	0,00101
734,329	0,00098
734,513	0,00103
734,696	0,00109
734,88	0,00114
735,064	0,00112
735,247	0,00099
735,431	0,00101
735,615	0,00092
735,798	0,00087
735,982	0,00091
736,166	0,00103
736,349	0,00104
736,533	0,00106
736,716	0,00111
736,9	0,00109
737,083	0,00116
737,267	0,00114
737,45	0,00099
737,634	0,00106
737,817	0,00108
738,001	0,00098
738,184	0,00096
738,368	0,00095
738,551	0,00084
738,734	0,00072
738,918	0,00072
739,101	0,00074
739,284	0,00073
739,468	0,00077
739,651	0,00073
739,834	0,00067
740,018	0,00069
740,201	0,00065
740,384	0,00056
740,567	0,00063
740,75	0,00065
740,934	0,00057
741,117	0,00049
741,3	0,00058
741,483	0,00065
741,666	0,00061
741,849	0,0007
742,032	0,00073
742,215	0,00073
742,399	0,00079
742,582	0,0008
742,765	0,00091
742,948	0,00099
743,131	0,0012
743,314	0,00104
743,496	0,00093
743,679	0,00097
743,862	0,00093
744,045	0,00086
744,228	0,00086
744,411	0,00081
744,594	0,00079
744,777	0,00069
744,959	0,00077
745,142	0,00067
745,325	0,00084
745,508	0,00092
745,691	0,00095
745,873	0,00088
746,056	0,00082
746,239	0,00084
746,421	0,00098
746,604	0,00088
746,787	0,00095
746,969	0,00082
747,152	0,00071
747,335	0,00062
747,517	0,0006
747,7	0,00071
747,882	0,00081
748,065	0,00083
748,247	0,00091
748,43	0,00072
748,612	0,0008
748,795	0,00074
748,977	0,00077
749,16	0,00083
749,342	0,00092
749,524	0,00092
749,707	0,00082
749,889	0,00083
750,072	0,0008
750,254	0,00077
750,436	0,00085
750,619	0,00086
750,801	0,00094
750,983	0,00087
751,165	0,00082
751,348	0,0008
751,53	0,00079
751,712	0,00074
751,894	0,00069
752,076	0,00088
752,259	0,00084
752,441	0,00083
752,623	0,00089
752,805	0,00081
752,987	0,0008
753,169	0,00083
753,351	0,00077
753,533	0,00071
753,715	0,00077
753,897	0,0008
754,079	0,0007
754,261	0,0007
754,443	0,00065
754,625	0,00055
754,807	0,0006
754,989	0,00073
755,171	0,00076
755,353	0,00078
755,534	0,00075
755,716	0,00069
755,898	0,0006
756,08	0,0006
756,262	0,00052
756,443	0,00046
756,625	0,00056
756,807	0,00045
756,989	0,00036
757,17	0,00031
757,352	0,00043
757,534	0,00056
757,715	0,00059
757,897	0,00066
758,079	0,0006
758,26	0,00068
758,442	0,00077
758,623	0,00066
758,805	0,00078
758,987	0,00074
759,168	0,00062
759,35	0,00044
759,531	0,00046
759,713	0,00041
759,894	0,00035
760,075	0,00035
760,257	0,00035
760,438	0,00034
760,62	0,00038
760,801	0,00039
760,982	0,00045
761,164	0,00052
761,345	0,00064
761,526	0,00058
761,708	0,00065
761,889	0,00074
762,07	0,00069
762,251	0,00075
762,433	0,0007
762,614	0,00069
762,795	0,00062
762,976	0,00057
763,157	0,00071
763,338	0,00057
763,52	0,00053
763,701	0,00045
763,882	0,00035
764,063	0,00055
764,244	0,00049
764,425	0,00059
764,606	0,00053
764,787	0,00047
764,968	0,00044
765,149	0,00024
765,33	0,00028
765,511	0,00027
765,692	0,00032
765,873	0,00038
766,053	0,00014
766,234	0,00012
766,415	0,00011
766,596	0,00013
766,777	0,00016
766,958	0,00008
767,138	0,0002
767,319	0,00013
767,5	0,00021
767,681	0,00013
767,861	0,00018
768,042	0,00028
768,223	0,00024
768,403	0,00014
768,584	0,00017
768,765	0,00014
768,945	0,00019
769,126	0,0002
769,307	0,00038
769,487	0,00032
769,668	0,00039
769,848	0,00032
770,029	0,00032
770,209	0,00029
770,39	0,00032
770,57	0,0004
770,751	0,00046
770,931	0,00046
771,111	0,00032
771,292	0,00015
771,472	0,00019
771,653	0,00017
771,833	0,00017
772,013	0,00014
772,194	0,00022
772,374	0,00018
772,554	0,00011
772,734	0,00005
772,915	0,00016
773,095	0,00028
773,275	0,00033
773,455	0,00028
773,635	0,00025
773,816	0,00026
773,996	0,00039
774,176	0,00042
774,356	0,00043
774,536	0,00042
774,716	0,00043
774,896	0,00038
775,076	0,00033
775,256	0,00034
775,436	0,00042
775,616	0,00052
775,796	0,00055
775,976	0,00046
776,156	0,00035
776,336	0,00033
776,516	0,00035
776,696	0,0003
776,876	0,00034
777,056	0,00033
777,235	0,00032
777,415	0,00033
777,595	0,00013
777,775	0,00007
777,955	-0,00002
778,134	-0,00003
778,314	0,00011
778,494	0,00006
778,674	0,00019
778,853	0,00021
779,033	0,00022
779,213	0,00023
779,392	0,00023
779,572	0,00035
779,751	0,0003
779,931	0,00041
780,111	0,00045
780,29	0,00027
780,47	0,00023
780,649	0,00011
780,829	0,00006
781,008	0,00012
781,188	0,00006
781,367	0,00004
781,546	0,00009
781,726	0,00016
781,905	0,00008
782,085	0,00009
782,264	0,00019
782,443	0,00023
782,623	0,00036
782,802	0,00033
782,981	0,0002
783,161	0,0002
783,34	0,00018
783,519	0,00021
783,698	0,00018
783,878	0,00028
784,057	0,00023
784,236	0,00026
784,415	0,00033
784,594	0,00029
784,773	0,0003
784,952	0,00043
785,132	0,00041
785,311	0,00047
785,49	0,00031
785,669	0,00024
785,848	0,0002
786,027	0,00019
786,206	0,00014
786,385	0
786,564	0,00004
786,743	0,00014
786,922	0,0001
787,1	0,00012
787,279	-0,00001
787,458	0,00023
787,637	0,00035
787,816	0,00038
787,995	0,00037
788,174	0,00031
788,352	0,00044
788,531	0,00035
788,71	0,00028
788,889	0,00022
789,067	0,0001
789,246	0,00003
789,425	-0,00015
789,603	-0,0002
789,782	-0,00024
789,961	-0,00015
790,139	0,00001
790,318	-0,00003
790,496	-0,00005
790,675	0,00004
790,853	0,00007
791,032	0,00016
791,211	0,00024
791,389	0,00027
791,568	0,00042
791,746	0,00041
791,924	0,00043
792,103	0,00033
792,281	0,00041
792,46	0,00051
792,638	0,00041
792,816	0,00043
792,995	0,00053
793,173	0,00053
793,351	0,00058
793,53	0,00062
793,708	0,00075
793,886	0,00083
794,064	0,00082
794,243	0,00083
794,421	0,0008
794,599	0,00074
794,777	0,00078
794,955	0,00066
795,133	0,00075
795,312	0,0007
795,49	0,00049
795,668	0,00031
795,846	0,00014
796,024	0,00026
796,202	0,00016
796,38	-0,00001
796,558	0,00003
796,736	-0,00015
796,914	-0
797,092	-0,00016
797,27	-0,00017
797,448	-0,00015
797,626	-0,00013
797,803	-0,00022
797,981	-0,00042
798,159	-0,00046
798,337	-0,0003
798,515	-0,00029
798,693	-0,00012
798,87	-0,0003
799,048	-0,00018
799,226	-0,00015
799,404	-0,00012
799,581	-0,0002
799,759	-0,00012
799,937	-0,00009
800,114	-0,00006
800,292	-0,00015
800,469	-0,0001
800,647	-0,0002
800,825	-0,00009
801,002	-0,00027
801,18	-0,00042
801,357	-0,00035
801,535	-0,00027
801,712	-0,00027
801,89	-0,00019
802,067	-0,00021
802,245	-0,00015
802,422	-0,00026
802,6	-0,0002
802,777	-0,00021
802,954	-0,00005
803,132	0,00008
803,309	0,00002
803,486	0,00001
803,664	0,00012
803,841	0,00024
804,018	0,00028
804,195	0,00026
804,373	0,00022
804,55	0,00033
804,727	0,00027
804,904	0,00025
805,081	0,00018
805,259	0,0001
805,436	0,00001
805,613	-0,00005
805,79	-0,0002
805,967	-0,00027
806,144	-0,00039
806,321	-0,00022
806,498	-0,00029
806,675	-0,00017
806,852	-0,00026
807,029	-0,00025
807,206	-0,00031
807,383	-0,0001
807,56	-0,00011
807,737	0,00001
807,914	0,00008
808,091	0,00035
808,268	0,00038
808,444	0,00037
808,621	0,00029
808,798	0,00011
808,975	0,00024
809,152	0,0002
809,328	0,00014
809,505	0,00023
809,682	0,00011
809,858	0,00001
810,035	-0,00012
810,212	-0,00042
810,388	-0,00042
810,565	-0,00027
810,742	-0,00014
810,918	-0,0002
811,095	-0,00006
811,271	-0,00005
811,448	-0,00022
811,625	-0,00021
811,801	-0,00012
811,978	-0,00002
812,154	0,00002
812,33	0,00007
812,507	-0,00002
812,683	0,00021
812,86	0,00012
813,036	0,00022
813,212	0,00027
813,389	0,00032
813,565	0,00022
813,741	0,00032
813,918	0,00019
814,094	0,00028
814,27	0,00008
814,447	0,00006
814,623	0,00001
814,799	0,00014
814,975	-0
815,151	-0,00012
815,328	-0,00015
815,504	-0,00004
815,68	-0,00019
815,856	-0,00012
816,032	0,00001
816,208	0,00011
816,384	-0,00008
816,56	-0,0001
816,736	-0,00024
816,912	-0,00014
817,088	-0,00021
817,264	-0,00024
817,44	-0,00023
817,616	-0,00016
817,792	-0,00025
817,968	-0,00021
818,144	-0,00014
818,32	0,00007
818,495	0,00008
818,671	0,00017
818,847	0,00007
819,023	0,00013
819,199	0,00026
819,374	0,00029
819,55	0,00021
819,726	0,00027
819,902	0,00011
820,077	0,00005
820,253	0,00001
820,429	-0,00012
820,604	-0,00006
820,78	0,00008
820,956	0,00008
821,131	-0
821,307	0,00003
821,482	0,0001
821,658	0,00019
821,833	0,00009
822,009	-0,00004
822,184	-0,00029
822,36	-0,00028
822,535	-0,00035
822,711	-0,00044
822,886	-0,0004
823,061	-0,00049
823,237	-0,00047
823,412	-0,00058
823,587	-0,00066
823,763	-0,00063
823,938	-0,00053
824,113	-0,00041
824,289	-0,00044
824,464	-0,00029
824,639	-0,00021
824,814	-0,00033
824,99	-0,00015
825,165	-0,00021
825,34	-0,00012
825,515	-0,00019
825,69	-0,00008
825,865	-0,00005
826,04	0,00016
826,215	0,00051
826,39	0,00054
826,566	0,0005
826,741	0,0008
826,916	0,00083
827,091	0,00076
827,265	0,00082
827,44	0,00082
827,615	0,00089
827,79	0,00073
827,965	0,00056
828,14	0,00032
828,315	0,00035
828,49	0,00031
828,665	0,00008
828,839	-0,00005
829,014	-0,00008
829,189	-0,00024
829,364	-0,00019
829,538	-0,00013
829,713	0,00004
829,888	0,00013
830,063	0,00013
830,237	-0,00006
830,412	-0,0001
830,587	-0,00003
830,761	0,00005
830,936	0,00009
831,11	0,00013
831,285	0,00007
831,459	0,00003
831,634	-0,00007
831,809	0,00008
831,983	-0,00003
832,157	-0,00009
832,332	-0,00017
832,506	-0,00014
832,681	-0,00027
832,855	-0,00032
833,03	-0,00044
833,204	-0,00038
833,378	-0,00037
833,553	-0,0003
833,727	-0,00038
833,901	-0,00022
834,076	-0,0001
834,25	-0,00006
834,424	0,00005
834,598	0,00031
834,773	0,00037
834,947	0,00071
835,121	0,00058
835,295	0,00052
835,469	0,00041
835,643	0,00022
835,817	-0,00004
835,991	-0,00015
836,166	-0,00022
836,34	-0,00033
836,514	-0,00065
836,688	-0,00059
836,862	-0,00066
837,036	-0,00056
837,21	-0,00064
837,384	-0,0005
837,557	-0,00039
837,731	-0,00011
837,905	0,00005
838,079	0,00006
838,253	-0,00006
838,427	0,00017
838,601	0,00009
838,774	-0,00001
838,948	-0,00015
839,122	0
839,296	0,00002
839,469	0,00014
839,643	-0,00011
839,817	-0,00041
839,991	-0,00032
840,164	-0,00022
840,338	-0,00052
840,512	-0,00035
840,685	-0,00017
840,859	-0,00008
841,032	-0,00026
841,206	-0,00029
841,379	-0,00044
841,553	-0,00025
841,726	-0,00001
841,9	0,00017
842,073	0,00019
842,247	0,00036
842,42	0,00011
842,594	-0,00013
842,767	-0,00006
842,94	-0,00003
843,114	0,00019
843,287	0,00027
843,46	0,00019
843,634	0,00009
843,807	0,00005
843,98	-0,00002
844,154	0,00005
844,327	0,0001
844,5	0,00014
844,673	0,00012
844,846	0,00018
845,02	0,00006
845,193	-0,00017
845,366	-0,00018
845,539	-0,00019
845,712	-0,00022
845,885	-0,00025
846,058	-0,0003
846,231	-0,00031
846,404	-0,00036
846,577	-0,0002
846,75	-0,00015
846,923	-0,00006
847,096	0,00021
847,269	0,00041
847,442	0,00041
847,615	0,00035
847,788	0,00038
847,961	0,00044
848,133	0,00051
848,306	0,00066
848,479	0,00061
848,652	0,00058
848,825	0,00042
848,997	0,00038
849,17	0,00027
849,343	0,00023
849,515	0,00012
849,688	0,00008
849,861	0,00007
850,033	0,00005
850,206	-0,00005
850,379	-0,00014
850,551	-0,0001
850,724	-0,00003
850,896	-0,00028
851,069	-0,0003
851,241	-0,00036
851,414	-0,0001
851,586	-0,00016
851,759	-0,00014
851,931	-0,0002
852,104	-0,00021
852,276	-0,00023
852,449	-0,00031
852,621	-0,00058
852,793	-0,00049
852,966	-0,00035
853,138	-0,00005
853,31	-0,00028
853,483	-0,00035
853,655	-0,00031
853,827	-0,00031
853,999	-0,0004
854,172	-0,00039
854,344	-0,00042
854,516	-0,00039
854,688	-0,00028
854,86	-0,00043
855,032	-0,00049
855,204	-0,00045
855,377	-0,00029
855,549	-0,00051
855,721	-0,00061
855,893	-0,00054
856,065	-0,00059
856,237	-0,00053
856,409	-0,00051
856,581	-0,00052
856,753	-0,00026
856,924	-0,0002
857,096	-0,00011
857,268	0,00004
857,44	0,00031
857,612	0,00058
857,784	0,00052
857,956	0,00067
858,127	0,00063
858,299	0,00073
858,471	0,00072
858,643	0,00039
858,814	0,0002
858,986	0,0002
859,158	-0
859,33	-0,00015
859,501	-0,00025
859,673	-0,00009
859,844	0,00013
860,016	0,00021
860,188	0,00042
860,359	0,00052
860,531	0,00047
860,702	0,00053
860,874	0,00024
861,045	0,0003
861,217	0,00035
861,388	0,00043
861,56	0,00032
861,731	-0,00004
861,902	-0,00015
862,074	-0,0003
862,245	-0,00026
862,417	-0,00012
862,588	-0,00015
862,759	0,00001
862,931	-0,00006
863,102	0,00008
863,273	0,00002
863,444	-0,0002
863,616	-0,00005
863,787	-0,00002
863,958	-0,00012
864,129	-0,0003
864,3	-0,00037
864,471	-0,00047
864,642	-0,00032
864,814	-0,00055
864,985	-0,00088
865,156	-0,00132
865,327	-0,00104
865,498	-0,00115
865,669	-0,00118
865,84	-0,00107
866,011	-0,00095
866,182	-0,0011
866,353	-0,00116
866,523	-0,00128
866,694	-0,00093
866,865	-0,00066
867,036	-0,00023
867,207	-0,00027
867,378	-0,00056
867,549	-0,00068
867,719	-0,0008
867,89	-0,00077
868,061	-0,00065
868,232	-0,00066
868,402	-0,00068
868,573	-0,0008
868,744	-0,00073
868,914	-0,00069
869,085	-0,00084
869,256	-0,00066
869,426	-0,00068
869,597	-0,00065
869,767	-0,00082
869,938	-0,00084
870,108	-0,00051
870,279	-0,00039
870,449	-0,00063
870,62	-0,0009
870,79	-0,00093
870,961	-0,00035
871,131	-0,00032
871,302	0
871,472	0,00008
871,642	0,00005
871,813	0,0001
871,983	-0,00004
872,153	-0,00019
872,324	0,00008
872,494	0,00018
872,664	0,00002
872,835	-0,00008
873,005	0,00026
873,175	-0,00003
873,345	-0,00022
873,515	-0,00032
873,685	-0,0005
873,856	-0,00047
874,026	-0,00068
874,196	-0,00056
874,366	-0,00068
874,536	-0,00071
874,706	-0,00105
874,876	-0,00136
875,046	-0,00134
875,216	-0,00107
875,386	-0,00065
875,556	-0,00017
875,726	-0,00016
875,896	0,00013
876,066	0,00004
876,236	-0,00031
876,405	-0,00009
876,575	-0,00012
876,745	-0,0002
876,915	0,00033
877,085	0,00028
877,254	0,00014
877,424	0,00011
877,594	0,00015
877,764	0,00009
877,933	0,00015
878,103	0,00057
878,273	0,00067
878,442	0,00062
878,612	0,00059
878,781	0,00013
878,951	0,00024
879,121	0,00017
879,29	-0,0003
879,46	-0,00026
879,629	0,00012
879,799	0,00004
879,968	0,00035
880,138	0,0005
880,307	0,00068
880,476	0,00071
880,646	0,00061
880,815	0,00045
880,985	0,0004
881,154	0,00065
881,323	0,00037
881,493	0,00005
881,662	-0,00016
881,831	-0,00026
882	-0,00048
882,17	-0,00046
882,339	-0,00048
882,508	-0,00031
882,677	-0,0002
882,846	0,00006
883,016	-0,00012
883,185	-0,00014
883,354	-0,00031
883,523	-0,00015
883,692	-0,00039
883,861	-0,00033
884,03	-0,00089
884,199	-0,00053
884,368	-0,00047
884,537	-0,00082
884,706	-0,00114
884,875	-0,00108
885,044	-0,00072
885,213	-0,00043
885,382	-0,00033
885,55	-0,00052
885,719	-0,00055
885,888	-0,00017
886,057	-0,00038
886,226	-0,00064
886,395	-0,00017
886,563	0,00006
886,732	0,00015
886,901	0,00006
887,069	0,00008
887,238	-0,00003
887,407	0,00019
887,575	0,0002
887,744	0,00022
887,913	0,00011
888,081	0,00017
888,25	0,00009
888,418	0
888,587	-0,00004
888,755	-0,00026
888,924	-0,0003
889,092	-0,00028
889,261	-0,00057
889,429	-0,00072
889,598	-0,00072
889,766	-0,00057
889,935	-0,00056
890,103	-0,00089
890,271	-0,00122
890,44	-0,00133
890,608	-0,0015
890,776	-0,00163
890,944	-0,0016
891,113	-0,00113
891,281	-0,00113
891,449	-0,00124
891,617	-0,00152
891,786	-0,00126
891,954	-0,00139
892,122	-0,00091
892,29	-0,00047
892,458	-0,00055
892,626	-0,00044
892,794	-0,00044
892,962	-0,00062
893,13	-0,00053
893,298	-0,00032
893,466	0,00008
