Data from Chemiepractica_Absorbance__12__11-34-33-067.txt Node

Date: Mon Dec 09 11:34:33 CET 2024
User: r0948668
Spectrometer: USB4F07138
Trigger mode: 4
Integration Time (sec): 6,000000E-3
Scans to average: 20
Electric dark correction enabled: true
Nonlinearity correction enabled: false
Boxcar width: 5
XAxis mode: Wavelengths
Number of Pixels in Spectrum: 3648
>>>>>Begin Spectral Data<<<<<
176,779	-0,94296
176,999	-1,71105
177,218	-0,81961
177,438	-0
177,658	-0
177,878	-0
178,097	-0
178,317	-0
178,537	0,08603
178,757	0,21113
178,976	-0
179,196	-0,3969
179,416	-0
179,635	-0,10324
179,855	0,07096
180,075	0,02125
180,294	-0,00826
180,514	-0,01899
180,734	0,03649
180,953	0,04727
181,173	0,04601
181,392	0,02858
181,612	0,04235
181,832	0,07225
182,051	0,06442
182,271	0,05302
182,49	0,05798
182,71	0,0563
182,929	0,06792
183,149	0,0423
183,368	0,04807
183,588	0,05163
183,807	0,06044
184,027	0,07146
184,246	0,07085
184,466	0,06534
184,685	0,07141
184,905	0,07189
185,124	0,07414
185,344	0,0797
185,563	0,11291
185,782	0,1208
186,002	0,10472
186,221	0,08866
186,44	0,07631
186,66	0,06317
186,879	0,08296
187,099	0,07488
187,318	0,07504
187,537	0,06426
187,756	0,05586
187,976	0,03546
188,195	0,03011
188,414	0,03795
188,634	0,04934
188,853	0,05758
189,072	0,05482
189,291	0,03476
189,511	0,03966
189,73	0,04018
189,949	0,04235
190,168	0,03783
190,387	0,0594
190,607	0,0521
190,826	0,04664
191,045	0,0508
191,264	0,03882
191,483	0,0337
191,702	0,03542
191,921	0,04087
192,141	0,03381
192,36	0,04801
192,579	0,05302
192,798	0,0485
193,017	0,04168
193,236	0,0546
193,455	0,05055
193,674	0,06491
193,893	0,07575
194,112	0,09404
194,331	0,08121
194,55	0,0924
194,769	0,07277
194,988	0,06858
195,207	0,06731
195,426	0,08175
195,645	0,07068
195,864	0,07007
196,083	0,06262
196,302	0,05291
196,521	0,04731
196,739	0,04364
196,958	0,02946
197,177	0,02765
197,396	0,04362
197,615	0,03584
197,834	0,01784
198,053	0,01225
198,271	0,0096
198,49	0,02137
198,709	0,02857
198,928	0,02814
199,147	0,03248
199,365	0,05768
199,584	0,08238
199,803	0,05052
200,022	0,05993
200,24	0,07063
200,459	0,09344
200,678	0,09948
200,897	0,08997
201,115	0,09151
201,334	0,09755
201,553	0,09032
201,771	0,06522
201,99	0,04589
202,209	0,0769
202,427	0,07555
202,646	0,07963
202,864	0,06074
203,083	0,05584
203,302	0,06918
203,52	0,06259
203,739	0,04751
203,957	0,06583
204,176	0,07679
204,394	0,09091
204,613	0,07889
204,831	0,08508
205,05	0,08178
205,268	0,09355
205,487	0,09242
205,705	0,0726
205,924	0,07272
206,142	0,07867
206,361	0,07581
206,579	0,07171
206,798	0,06974
207,016	0,07165
207,234	0,05492
207,453	0,06213
207,671	0,06744
207,89	0,06972
208,108	0,08245
208,326	0,07671
208,545	0,07398
208,763	0,07852
208,981	0,07307
209,2	0,06264
209,418	0,06147
209,636	0,06593
209,855	0,05789
210,073	0,04854
210,291	0,03555
210,509	0,03641
210,728	0,04207
210,946	0,048
211,164	0,03215
211,382	0,04303
211,6	0,04655
211,819	0,04209
212,037	0,04399
212,255	0,04105
212,473	0,04303
212,691	0,04486
212,909	0,04013
213,128	0,03599
213,346	0,02855
213,564	0,04277
213,782	0,04919
214	0,0551
214,218	0,05707
214,436	0,05729
214,654	0,05504
214,872	0,05764
215,09	0,06053
215,308	0,06418
215,526	0,07774
215,744	0,08417
215,962	0,07696
216,18	0,05471
216,398	0,05373
216,616	0,04947
216,834	0,05353
217,052	0,0613
217,27	0,0438
217,488	0,05042
217,706	0,05648
217,924	0,05816
218,142	0,05302
218,36	0,06109
218,578	0,07924
218,795	0,07713
219,013	0,08603
219,231	0,08584
219,449	0,07364
219,667	0,0728
219,885	0,07143
220,102	0,07561
220,32	0,05645
220,538	0,06803
220,756	0,05138
220,973	0,04421
221,191	0,04452
221,409	0,03536
221,627	0,03407
221,844	0,05081
222,062	0,06066
222,28	0,05669
222,497	0,03967
222,715	0,04875
222,933	0,03279
223,15	0,02557
223,368	0,0219
223,586	0,02931
223,803	0,03416
224,021	0,02442
224,239	0,01833
224,456	0,01432
224,674	0,02374
224,891	0,02716
225,109	0,01748
225,326	0,01855
225,544	0,02367
225,762	0,0297
225,979	0,02014
226,197	0,01352
226,414	0,00943
226,632	0,00558
226,849	0,00674
227,066	0,00596
227,284	0,00019
227,501	0,01316
227,719	0,02314
227,936	0,03092
228,154	0,02959
228,371	0,03555
228,588	0,05424
228,806	0,07194
229,023	0,07516
229,241	0,08363
229,458	0,07665
229,675	0,09056
229,893	0,0742
230,11	0,06668
230,327	0,05396
230,545	0,05777
230,762	0,05171
230,979	0,04549
231,196	0,03543
231,414	0,03475
231,631	0,0311
231,848	0,02813
232,065	0,02159
232,283	0,0214
232,5	0,02482
232,717	0,03528
232,934	0,02353
233,151	0,02597
233,368	0,00983
233,586	0,01222
233,803	0,00729
234,02	0,0053
234,237	0,01084
234,454	0,01059
234,671	0,03843
234,888	0,03746
235,105	0,03939
235,322	0,05522
235,54	0,05725
235,757	0,07141
235,974	0,07193
236,191	0,079
236,408	0,08045
236,625	0,08136
236,842	0,07674
237,059	0,05808
237,276	0,05395
237,493	0,0516
237,71	0,03855
237,926	0,02925
238,143	0,025
238,36	0,02499
238,577	0,01044
238,794	0,00536
239,011	-0,0027
239,228	0,00013
239,445	-0,00051
239,662	0,01117
239,878	0,0187
240,095	0,02473
240,312	0,03336
240,529	0,03209
240,746	0,03122
240,963	0,03465
241,179	0,03237
241,396	0,0451
241,613	0,03761
241,83	0,04596
242,046	0,03883
242,263	0,04033
242,48	0,04515
242,697	0,04198
242,913	0,04528
243,13	0,04413
243,347	0,0536
243,563	0,06455
243,78	0,07086
243,997	0,08591
244,213	0,07678
244,43	0,09269
244,646	0,09347
244,863	0,08315
245,08	0,08803
245,296	0,08431
245,513	0,08272
245,729	0,08514
245,946	0,08345
246,162	0,07333
246,379	0,06861
246,595	0,06869
246,812	0,05351
247,028	0,04986
247,245	0,05274
247,461	0,03321
247,678	0,03414
247,894	0,04501
248,111	0,03146
248,327	0,03178
248,544	0,0342
248,76	0,04096
248,976	0,0465
249,193	0,04351
249,409	0,03956
249,626	0,02885
249,842	0,04684
250,058	0,05039
250,275	0,04409
250,491	0,03794
250,707	0,03883
250,924	0,04406
251,14	0,0437
251,356	0,04121
251,572	0,04187
251,789	0,04886
252,005	0,06253
252,221	0,06019
252,437	0,05238
252,654	0,04654
252,87	0,06502
253,086	0,0701
253,302	0,06799
253,518	0,06228
253,735	0,06708
253,951	0,07044
254,167	0,0659
254,383	0,05129
254,599	0,04896
254,815	0,05405
255,031	0,0497
255,247	0,03939
255,463	0,02603
255,68	0,03417
255,896	0,04244
256,112	0,03536
256,328	0,03651
256,544	0,04389
256,76	0,06193
256,976	0,06086
257,192	0,07208
257,408	0,07789
257,624	0,08195
257,84	0,0905
258,056	0,07964
258,272	0,0733
258,487	0,06303
258,703	0,06495
258,919	0,05916
259,135	0,04621
259,351	0,04822
259,567	0,04484
259,783	0,05447
259,999	0,05002
260,215	0,04172
260,43	0,03822
260,646	0,04005
260,862	0,05617
261,078	0,05396
261,294	0,05456
261,509	0,07533
261,725	0,0862
261,941	0,08084
262,157	0,07532
262,372	0,078
262,588	0,07398
262,804	0,08497
263,019	0,0772
263,235	0,06859
263,451	0,06711
263,667	0,07413
263,882	0,07272
264,098	0,07407
264,313	0,08042
264,529	0,0701
264,745	0,07535
264,96	0,07842
265,176	0,06846
265,391	0,06477
265,607	0,07334
265,823	0,0672
266,038	0,05621
266,254	0,04894
266,469	0,04439
266,685	0,03948
266,9	0,03583
267,116	0,03159
267,331	0,04206
267,547	0,05045
267,762	0,0442
267,978	0,03949
268,193	0,04834
268,408	0,06051
268,624	0,05496
268,839	0,05267
269,055	0,04854
269,27	0,05557
269,485	0,05762
269,701	0,04904
269,916	0,04255
270,132	0,0592
270,347	0,05542
270,562	0,05326
270,777	0,04166
270,993	0,04905
271,208	0,0349
271,423	0,04614
271,639	0,05248
271,854	0,04181
272,069	0,03903
272,284	0,03876
272,5	0,03297
272,715	0,04006
272,93	0,03383
273,145	0,03739
273,36	0,0443
273,576	0,06409
273,791	0,05552
274,006	0,05035
274,221	0,05527
274,436	0,05808
274,651	0,05574
274,866	0,0603
275,081	0,06508
275,296	0,06823
275,512	0,06566
275,727	0,05969
275,942	0,05947
276,157	0,05671
276,372	0,06192
276,587	0,07543
276,802	0,09352
277,017	0,09846
277,232	0,10258
277,447	0,09031
277,662	0,08595
277,877	0,08752
278,092	0,08308
278,306	0,07357
278,521	0,07436
278,736	0,0742
278,951	0,0575
279,166	0,04232
279,381	0,03211
279,596	0,02175
279,811	0,02294
280,025	0,01533
280,24	0,00883
280,455	0,01049
280,67	0,01131
280,885	0,01253
281,099	0,00063
281,314	0,00162
281,529	0,00611
281,744	0,02036
281,959	0,01812
282,173	0,02946
282,388	0,04471
282,603	0,04549
282,817	0,0436
283,032	0,04198
283,247	0,03629
283,461	0,04064
283,676	0,0416
283,891	0,03686
284,105	0,02929
284,32	0,03873
284,535	0,03498
284,749	0,03978
284,964	0,04855
285,178	0,04935
285,393	0,0584
285,607	0,06143
285,822	0,07165
286,036	0,08613
286,251	0,08399
286,465	0,09423
286,68	0,09358
286,894	0,08511
287,109	0,0789
287,323	0,06596
287,538	0,06743
287,752	0,05881
287,967	0,06217
288,181	0,05011
288,396	0,05195
288,61	0,05622
288,824	0,05709
289,039	0,05791
289,253	0,06691
289,467	0,06669
289,682	0,07644
289,896	0,07707
290,11	0,08682
290,325	0,08347
290,539	0,0804
290,753	0,07019
290,968	0,05808
291,182	0,03712
291,396	0,03534
291,61	0,041
291,825	0,03968
292,039	0,04225
292,253	0,03763
292,467	0,02005
292,681	0,02049
292,896	0,02509
293,11	0,01502
293,324	0,0279
293,538	0,04053
293,752	0,03976
293,966	0,02683
294,18	0,02209
294,394	0,01791
294,608	0,02181
294,823	0,02988
295,037	0,03041
295,251	0,03285
295,465	0,03987
295,679	0,03072
295,893	0,03443
296,107	0,03015
296,321	0,04397
296,535	0,04678
296,749	0,04744
296,963	0,03552
297,177	0,03613
297,391	0,03814
297,604	0,0314
297,818	0,0285
298,032	0,0294
298,246	0,0113
298,46	0,01751
298,674	0,01074
298,888	0,01286
299,102	0,015
299,315	0,03045
299,529	0,03839
299,743	0,04151
299,957	0,04615
300,171	0,05229
300,385	0,0558
300,598	0,06207
300,812	0,06454
301,026	0,06541
301,24	0,07788
301,453	0,07678
301,667	0,0703
301,881	0,06685
302,094	0,05808
302,308	0,06379
302,522	0,07517
302,735	0,07393
302,949	0,07992
303,163	0,06699
303,376	0,05633
303,59	0,05044
303,803	0,04605
304,017	0,04738
304,231	0,05011
304,444	0,05384
304,658	0,05306
304,871	0,04543
305,085	0,04742
305,298	0,03823
305,512	0,04622
305,725	0,0562
305,939	0,06408
306,152	0,05878
306,366	0,04981
306,579	0,0473
306,793	0,04961
307,006	0,05367
307,22	0,04915
307,433	0,0401
307,646	0,04487
307,86	0,04149
308,073	0,03919
308,286	0,02264
308,5	0,02804
308,713	0,02724
308,926	0,02751
309,14	0,02279
309,353	0,01097
309,566	0,00218
309,78	0,00609
309,993	0,01068
310,206	0,01632
310,419	0,01868
310,633	0,02058
310,846	0,03318
311,059	0,04066
311,272	0,04022
311,486	0,04467
311,699	0,05422
311,912	0,05854
312,125	0,06817
312,338	0,06735
312,551	0,05877
312,764	0,0591
312,978	0,07268
313,191	0,06579
313,404	0,06881
313,617	0,06629
313,83	0,06494
314,043	0,06204
314,256	0,05947
314,469	0,05361
314,682	0,05359
314,895	0,06311
315,108	0,06703
315,321	0,05778
315,534	0,06506
315,747	0,07164
315,96	0,07279
316,173	0,07366
316,386	0,06573
316,599	0,07224
316,812	0,07868
317,025	0,07788
317,237	0,06355
317,45	0,0493
317,663	0,04413
317,876	0,03621
318,089	0,03125
318,302	0,0205
318,515	0,01348
318,727	0,01614
318,94	0,02046
319,153	0,01164
319,366	0,00601
319,578	0,00761
319,791	0,02478
320,004	0,0233
320,217	0,0258
320,429	0,02272
320,642	0,02622
320,855	0,02576
321,067	0,02345
321,28	0,02314
321,493	0,02557
321,705	0,03026
321,918	0,04063
322,131	0,03307
322,343	0,03354
322,556	0,03348
322,768	0,03068
322,981	0,02801
323,194	0,0355
323,406	0,03525
323,619	0,02607
323,831	0,03291
324,044	0,03523
324,256	0,0333
324,469	0,02456
324,681	0,02525
324,894	0,02124
325,106	0,02167
325,319	0,01858
325,531	0,02063
325,743	0,02005
325,956	0,02549
326,168	0,01532
326,381	0,02254
326,593	0,01415
326,805	0,02768
327,018	0,02565
327,23	0,01589
327,442	0,02562
327,655	0,0273
327,867	0,02767
328,079	0,0283
328,292	0,03015
328,504	0,03797
328,716	0,02583
328,928	0,03805
329,141	0,04077
329,353	0,04485
329,565	0,05934
329,777	0,04927
329,99	0,05734
330,202	0,0624
330,414	0,05949
330,626	0,05538
330,838	0,05041
331,05	0,05328
331,263	0,04383
331,475	0,03705
331,687	0,03935
331,899	0,03807
332,111	0,03963
332,323	0,04015
332,535	0,02949
332,747	0,03995
332,959	0,037
333,171	0,0417
333,383	0,03957
333,595	0,03832
333,807	0,03366
334,019	0,03062
334,231	0,03115
334,443	0,02986
334,655	0,02432
334,867	0,031
335,079	0,02982
335,291	0,02833
335,503	0,03005
335,714	0,0255
335,926	0,03363
336,138	0,03652
336,35	0,03366
336,562	0,03939
336,774	0,04313
336,986	0,04096
337,197	0,03918
337,409	0,03201
337,621	0,03905
337,833	0,03411
338,044	0,0428
338,256	0,04026
338,468	0,04355
338,68	0,04739
338,891	0,03524
339,103	0,03417
339,315	0,03665
339,526	0,03177
339,738	0,02864
339,95	0,02436
340,161	0,03227
340,373	0,02205
340,585	0,01125
340,796	0,0092
341,008	0,01114
341,219	0,01841
341,431	0,01858
341,642	0,0218
341,854	0,02709
342,065	0,03818
342,277	0,04266
342,489	0,03387
342,7	0,04349
342,912	0,05619
343,123	0,05877
343,334	0,05818
343,546	0,05156
343,757	0,05145
343,969	0,04751
344,18	0,0465
344,392	0,04172
344,603	0,04528
344,814	0,04768
345,026	0,04977
345,237	0,04871
345,448	0,04418
345,66	0,04451
345,871	0,04985
346,082	0,04754
346,294	0,0471
346,505	0,05167
346,716	0,05969
346,927	0,05592
347,139	0,05828
347,35	0,04673
347,561	0,04596
347,772	0,04333
347,984	0,0436
348,195	0,04112
348,406	0,03968
348,617	0,04526
348,828	0,04111
349,039	0,03608
349,251	0,0374
349,462	0,03236
349,673	0,0339
349,884	0,0377
350,095	0,04
350,306	0,03507
350,517	0,04024
350,728	0,03476
350,939	0,04177
351,15	0,04119
351,361	0,04163
351,572	0,0454
351,783	0,04888
351,994	0,05189
352,205	0,04291
352,416	0,03976
352,627	0,04087
352,838	0,03438
353,049	0,04919
353,26	0,04554
353,471	0,04426
353,682	0,04849
353,893	0,04293
354,103	0,04033
354,314	0,03384
354,525	0,038
354,736	0,04541
354,947	0,04709
355,157	0,04815
355,368	0,0412
355,579	0,03481
355,79	0,03437
356,001	0,02664
356,211	0,03163
356,422	0,02528
356,633	0,03603
356,843	0,03358
357,054	0,02581
357,265	0,03014
357,476	0,03554
357,686	0,0374
357,897	0,0408
358,107	0,03909
358,318	0,04338
358,529	0,04035
358,739	0,05443
358,95	0,04913
359,16	0,05577
359,371	0,05786
359,582	0,05502
359,792	0,05051
360,003	0,04713
360,213	0,0425
360,424	0,04487
360,634	0,04459
360,845	0,03841
361,055	0,0318
361,266	0,03094
361,476	0,03419
361,686	0,03268
361,897	0,03147
362,107	0,03401
362,318	0,03311
362,528	0,02954
362,738	0,02518
362,949	0,02512
363,159	0,02803
363,369	0,02822
363,58	0,02985
363,79	0,02373
364	0,02597
364,211	0,02553
364,421	0,0236
364,631	0,03209
364,842	0,0331
365,052	0,03641
365,262	0,03402
365,472	0,04072
365,682	0,04168
365,893	0,04338
366,103	0,04385
366,313	0,04223
366,523	0,04004
366,733	0,03867
366,943	0,03505
367,154	0,04154
367,364	0,0474
367,574	0,04829
367,784	0,04412
367,994	0,04514
368,204	0,04105
368,414	0,03945
368,624	0,04176
368,834	0,04208
369,044	0,04217
369,254	0,04455
369,464	0,04142
369,674	0,03483
369,884	0,03262
370,094	0,0295
370,304	0,0268
370,514	0,03026
370,724	0,02854
370,934	0,02297
371,144	0,02576
371,353	0,02894
371,563	0,02579
371,773	0,02924
371,983	0,03326
372,193	0,03612
372,403	0,03933
372,612	0,03491
372,822	0,03282
373,032	0,0333
373,242	0,03635
373,452	0,03727
373,661	0,03523
373,871	0,03285
374,081	0,03271
374,29	0,03213
374,5	0,02877
374,71	0,02397
374,92	0,02677
375,129	0,02706
375,339	0,02777
375,549	0,02678
375,758	0,02631
375,968	0,026
376,177	0,02837
376,387	0,02496
376,597	0,02221
376,806	0,02561
377,016	0,02744
377,225	0,02408
377,435	0,02068
377,644	0,02055
377,854	0,02258
378,063	0,02078
378,273	0,0237
378,482	0,02459
378,692	0,02809
378,901	0,02901
379,111	0,02815
379,32	0,03043
379,529	0,03739
379,739	0,04287
379,948	0,04218
380,158	0,04163
380,367	0,04574
380,576	0,03982
380,786	0,03458
380,995	0,03584
381,204	0,03888
381,414	0,03776
381,623	0,03542
381,832	0,03389
382,041	0,03203
382,251	0,03352
382,46	0,03114
382,669	0,02559
382,878	0,02769
383,088	0,02968
383,297	0,02662
383,506	0,02492
383,715	0,02147
383,924	0,02089
384,133	0,01955
384,342	0,02366
384,552	0,02231
384,761	0,0269
384,97	0,02907
385,179	0,0317
385,388	0,03312
385,597	0,03052
385,806	0,02738
386,015	0,03181
386,224	0,03633
386,433	0,03652
386,642	0,02761
386,851	0,02968
387,06	0,03033
387,269	0,02824
387,478	0,02601
387,687	0,02562
387,896	0,02811
388,105	0,02996
388,314	0,02598
388,523	0,02191
388,731	0,02339
388,94	0,02486
389,149	0,02624
389,358	0,02392
389,567	0,02691
389,776	0,02648
389,984	0,02505
390,193	0,02661
390,402	0,02605
390,611	0,02863
390,819	0,02696
391,028	0,02455
391,237	0,02731
391,446	0,02355
391,654	0,02448
391,863	0,02322
392,072	0,02158
392,28	0,02649
392,489	0,02237
392,698	0,0201
392,906	0,02029
393,115	0,02146
393,324	0,02303
393,532	0,02156
393,741	0,0202
393,949	0,01823
394,158	0,01863
394,366	0,01618
394,575	0,01231
394,783	0,01703
394,992	0,01818
395,2	0,01529
395,409	0,0163
395,617	0,01393
395,826	0,01726
396,034	0,01642
396,243	0,01549
396,451	0,01488
396,66	0,01935
396,868	0,01858
397,076	0,01443
397,285	0,01107
397,493	0,01324
397,701	0,01157
397,91	0,01161
398,118	0,00925
398,326	0,0104
398,535	0,01013
398,743	0,01289
398,951	0,01168
399,159	0,01326
399,368	0,01732
399,576	0,01976
399,784	0,02127
399,992	0,02286
400,201	0,02313
400,409	0,02049
400,617	0,02273
400,825	0,02589
401,033	0,0241
401,241	0,02654
401,45	0,02724
401,658	0,02702
401,866	0,02927
402,074	0,02821
402,282	0,02791
402,49	0,02819
402,698	0,03106
402,906	0,02919
403,114	0,02553
403,322	0,02462
403,53	0,02299
403,738	0,0217
403,946	0,01809
404,154	0,01671
404,362	0,01683
404,57	0,0157
404,778	0,01502
404,986	0,01425
405,194	0,01531
405,402	0,01752
405,609	0,018
405,817	0,01662
406,025	0,0178
406,233	0,02014
406,441	0,0207
406,649	0,01761
406,856	0,01862
407,064	0,01875
407,272	0,01869
407,48	0,01805
407,687	0,01803
407,895	0,01776
408,103	0,01773
408,311	0,01782
408,518	0,01584
408,726	0,01653
408,934	0,01883
409,141	0,01887
409,349	0,01829
409,557	0,02111
409,764	0,02069
409,972	0,02028
410,18	0,01885
410,387	0,02058
410,595	0,01799
410,802	0,01803
411,01	0,01642
411,217	0,01547
411,425	0,01646
411,632	0,01696
411,84	0,01539
412,047	0,0152
412,255	0,01512
412,462	0,01662
412,67	0,01699
412,877	0,01919
413,085	0,01904
413,292	0,01999
413,499	0,0214
413,707	0,01893
413,914	0,01891
414,122	0,01871
414,329	0,01938
414,536	0,0182
414,744	0,01718
414,951	0,01705
415,158	0,0165
415,366	0,01608
415,573	0,01585
415,78	0,01482
415,987	0,01535
416,195	0,01721
416,402	0,01592
416,609	0,01771
416,816	0,01835
417,023	0,02
417,231	0,01992
417,438	0,0184
417,645	0,01865
417,852	0,01736
418,059	0,01809
418,266	0,01683
418,473	0,01433
418,68	0,01467
418,888	0,01174
419,095	0,01416
419,302	0,01277
419,509	0,01267
419,716	0,01322
419,923	0,01339
420,13	0,01333
420,337	0,01288
420,544	0,01346
420,751	0,01348
420,958	0,0144
421,165	0,01661
421,371	0,01387
421,578	0,01284
421,785	0,01113
421,992	0,01055
422,199	0,01124
422,406	0,01239
422,613	0,01219
422,82	0,01402
423,026	0,0148
423,233	0,01482
423,44	0,01286
423,647	0,01341
423,854	0,01502
424,06	0,01524
424,267	0,01589
424,474	0,01533
424,681	0,01514
424,887	0,01569
425,094	0,01358
425,301	0,01481
425,507	0,01366
425,714	0,01322
425,921	0,01322
426,127	0,01193
426,334	0,01186
426,54	0,01154
426,747	0,01237
426,954	0,01189
427,16	0,01081
427,367	0,01103
427,573	0,01031
427,78	0,01048
427,986	0,01157
428,193	0,01027
428,399	0,01183
428,606	0,01165
428,812	0,0123
429,019	0,01125
429,225	0,01201
429,432	0,01273
429,638	0,0136
429,845	0,01304
430,051	0,01317
430,257	0,01263
430,464	0,01395
430,67	0,01324
430,876	0,01348
431,083	0,01411
431,289	0,0148
431,495	0,01408
431,702	0,01361
431,908	0,01257
432,114	0,01145
432,32	0,01124
432,527	0,01114
432,733	0,01025
432,939	0,01035
433,145	0,01112
433,351	0,0096
433,558	0,00937
433,764	0,01013
433,97	0,01063
434,176	0,01083
434,382	0,0131
434,588	0,01336
434,794	0,01348
435,001	0,01304
435,207	0,01297
435,413	0,01235
435,619	0,01348
435,825	0,01324
436,031	0,01275
436,237	0,01299
436,443	0,01384
436,649	0,0129
436,855	0,01284
437,061	0,01365
437,267	0,0154
437,473	0,01476
437,679	0,0148
437,884	0,01371
438,09	0,01287
438,296	0,01224
438,502	0,01051
438,708	0,00975
438,914	0,00948
439,12	0,00947
439,325	0,00872
439,531	0,00873
439,737	0,00846
439,943	0,00851
440,149	0,00895
440,354	0,01018
440,56	0,01062
440,766	0,01114
440,972	0,01193
441,177	0,01264
441,383	0,01339
441,589	0,01403
441,794	0,01357
442	0,01382
442,206	0,01388
442,411	0,01334
442,617	0,01271
442,822	0,01307
443,028	0,0129
443,234	0,01334
443,439	0,01227
443,645	0,01152
443,85	0,0112
444,056	0,01118
444,261	0,01184
444,467	0,01203
444,672	0,01265
444,878	0,01285
445,083	0,01325
445,289	0,01377
445,494	0,01336
445,699	0,01364
445,905	0,01376
446,11	0,01367
446,316	0,01344
446,521	0,01311
446,726	0,01339
446,932	0,01305
447,137	0,0137
447,342	0,01316
447,548	0,01233
447,753	0,01226
447,958	0,01235
448,164	0,01244
448,369	0,01195
448,574	0,01166
448,779	0,0119
448,984	0,01139
449,19	0,01222
449,395	0,01166
449,6	0,01179
449,805	0,01252
450,01	0,01263
450,215	0,01258
450,421	0,01286
450,626	0,01381
450,831	0,01348
451,036	0,01279
451,241	0,01372
451,446	0,01318
451,651	0,01291
451,856	0,01273
452,061	0,01303
452,266	0,01298
452,471	0,01335
452,676	0,01331
452,881	0,01213
453,086	0,01345
453,291	0,01412
453,496	0,01354
453,701	0,01343
453,906	0,0145
454,111	0,01387
454,316	0,0139
454,52	0,01398
454,725	0,01294
454,93	0,01275
455,135	0,01367
455,34	0,01292
455,545	0,01357
455,749	0,01354
455,954	0,0138
456,159	0,01304
456,364	0,01455
456,568	0,0145
456,773	0,01438
456,978	0,01574
457,182	0,01661
457,387	0,01672
457,592	0,01622
457,796	0,01546
458,001	0,01593
458,206	0,01561
458,41	0,01622
458,615	0,01524
458,82	0,01565
459,024	0,01605
459,229	0,01629
459,433	0,01539
459,638	0,01523
459,842	0,01591
460,047	0,01627
460,251	0,01583
460,456	0,01558
460,66	0,01539
460,865	0,01597
461,069	0,0162
461,274	0,01632
461,478	0,01587
461,682	0,01581
461,887	0,01617
462,091	0,01638
462,296	0,01663
462,5	0,01721
462,704	0,0178
462,909	0,01765
463,113	0,01746
463,317	0,01714
463,522	0,01736
463,726	0,01755
463,93	0,01752
464,134	0,01779
464,339	0,01792
464,543	0,01795
464,747	0,01742
464,951	0,01782
465,155	0,01792
465,36	0,01872
465,564	0,0187
465,768	0,01803
465,972	0,01867
466,176	0,01937
466,38	0,01931
466,584	0,01954
466,788	0,01946
466,993	0,01982
467,197	0,0195
467,401	0,02004
467,605	0,01947
467,809	0,02035
468,013	0,02071
468,217	0,01991
468,421	0,01941
468,625	0,01928
468,829	0,01916
469,033	0,01928
469,236	0,02003
469,44	0,02018
469,644	0,01977
469,848	0,01979
470,052	0,02
470,256	0,01957
470,46	0,0201
470,664	0,02044
470,867	0,02076
471,071	0,02102
471,275	0,02103
471,479	0,02068
471,683	0,02087
471,886	0,02122
472,09	0,02159
472,294	0,02069
472,497	0,02099
472,701	0,02083
472,905	0,02132
473,109	0,02146
473,312	0,02152
473,516	0,02185
473,719	0,0217
473,923	0,0217
474,127	0,02177
474,33	0,02153
474,534	0,02212
474,737	0,02278
474,941	0,02296
475,145	0,02248
475,348	0,02239
475,552	0,02235
475,755	0,02242
475,959	0,02307
476,162	0,02347
476,366	0,0238
476,569	0,02425
476,772	0,02468
476,976	0,02469
477,179	0,02487
477,383	0,02531
477,586	0,02542
477,789	0,02564
477,993	0,02592
478,196	0,026
478,399	0,02604
478,603	0,02598
478,806	0,02594
479,009	0,02569
479,213	0,02539
479,416	0,02546
479,619	0,0259
479,822	0,02639
480,026	0,02681
480,229	0,02708
480,432	0,02714
480,635	0,02704
480,838	0,02751
481,041	0,02727
481,245	0,02742
481,448	0,02758
481,651	0,02802
481,854	0,02781
482,057	0,0276
482,26	0,02767
482,463	0,02776
482,666	0,02796
482,869	0,02848
483,072	0,02835
483,275	0,02887
483,478	0,02874
483,681	0,02944
483,884	0,02946
484,087	0,02978
484,29	0,03019
484,493	0,03028
484,696	0,03026
484,899	0,03064
485,102	0,03061
485,305	0,03071
485,508	0,03117
485,71	0,03162
485,913	0,0317
486,116	0,03188
486,319	0,03221
486,522	0,03227
486,725	0,03225
486,927	0,03274
487,13	0,0327
487,333	0,03323
487,536	0,03346
487,738	0,03361
487,941	0,03399
488,144	0,0342
488,346	0,03447
488,549	0,03434
488,752	0,03485
488,954	0,03524
489,157	0,03485
489,359	0,03531
489,562	0,03527
489,765	0,03548
489,967	0,03567
490,17	0,03597
490,372	0,03622
490,575	0,03638
490,777	0,03708
490,98	0,03679
491,182	0,0369
491,385	0,03753
491,587	0,03755
491,79	0,03788
491,992	0,03809
492,195	0,03822
492,397	0,03827
492,599	0,03844
492,802	0,03882
493,004	0,039
493,207	0,03957
493,409	0,04004
493,611	0,04023
493,814	0,0406
494,016	0,04053
494,218	0,04092
494,42	0,04132
494,623	0,04184
494,825	0,04208
495,027	0,04202
495,229	0,04202
495,432	0,04199
495,634	0,04234
495,836	0,04269
496,038	0,0427
496,24	0,04336
496,442	0,04334
496,645	0,0436
496,847	0,04369
497,049	0,04402
497,251	0,04438
497,453	0,04468
497,655	0,04513
497,857	0,04533
498,059	0,04571
498,261	0,04609
498,463	0,04642
498,665	0,04714
498,867	0,04739
499,069	0,04762
499,271	0,04785
499,473	0,04818
499,675	0,04836
499,877	0,04871
500,079	0,04892
500,281	0,04907
500,482	0,0492
500,684	0,04934
500,886	0,04937
501,088	0,04977
501,29	0,0502
501,492	0,05058
501,693	0,05105
501,895	0,05168
502,097	0,05202
502,299	0,05223
502,5	0,05263
502,702	0,05323
502,904	0,05376
503,106	0,05418
503,307	0,05435
503,509	0,0546
503,711	0,05512
503,912	0,05553
504,114	0,05552
504,315	0,05576
504,517	0,05627
504,719	0,05664
504,92	0,05708
505,122	0,05722
505,323	0,05758
505,525	0,05784
505,726	0,0582
505,928	0,05827
506,129	0,05863
506,331	0,05916
506,532	0,05958
506,734	0,05968
506,935	0,06004
507,137	0,05998
507,338	0,06025
507,539	0,0605
507,741	0,06135
507,942	0,06138
508,143	0,06178
508,345	0,06187
508,546	0,06229
508,747	0,06274
508,949	0,06342
509,15	0,06359
509,351	0,06407
509,553	0,06433
509,754	0,06468
509,955	0,06432
510,156	0,06482
510,357	0,06493
510,559	0,06534
510,76	0,06538
510,961	0,06574
511,162	0,06595
511,363	0,0662
511,564	0,0665
511,766	0,06696
511,967	0,06753
512,168	0,06829
512,369	0,06883
512,57	0,06953
512,771	0,07033
512,972	0,07088
513,173	0,07135
513,374	0,07154
513,575	0,07198
513,776	0,07259
513,977	0,07283
514,178	0,07295
514,379	0,07331
514,58	0,07367
514,781	0,0743
514,981	0,07442
515,182	0,07473
515,383	0,07511
515,584	0,07574
515,785	0,07624
515,986	0,07653
516,187	0,07716
516,387	0,07756
516,588	0,07817
516,789	0,07857
516,99	0,07869
517,19	0,0791
517,391	0,07994
517,592	0,08047
517,793	0,08107
517,993	0,08162
518,194	0,08214
518,395	0,08269
518,595	0,08335
518,796	0,08362
518,996	0,08419
519,197	0,08461
519,398	0,08494
519,598	0,08532
519,799	0,08547
519,999	0,08585
520,2	0,0864
520,4	0,08678
520,601	0,08736
520,801	0,08798
521,002	0,08859
521,202	0,08909
521,403	0,08959
521,603	0,09018
521,804	0,09044
522,004	0,09113
522,204	0,09142
522,405	0,09169
522,605	0,09213
522,806	0,09232
523,006	0,09265
523,206	0,09297
523,407	0,0936
523,607	0,09405
523,807	0,09443
524,007	0,09469
524,208	0,09496
524,408	0,09541
524,608	0,09592
524,808	0,09639
525,009	0,09704
525,209	0,09727
525,409	0,09777
525,609	0,09794
525,809	0,09855
526,009	0,09878
526,209	0,09932
526,41	0,09982
526,61	0,10047
526,81	0,10086
527,01	0,10126
527,21	0,10141
527,41	0,10216
527,61	0,10237
527,81	0,10272
528,01	0,10297
528,21	0,10371
528,41	0,10412
528,61	0,10447
528,81	0,10463
529,01	0,10514
529,21	0,10555
529,41	0,10602
529,609	0,10617
529,809	0,10648
530,009	0,10699
530,209	0,10729
530,409	0,10753
530,609	0,10795
530,808	0,1082
531,008	0,10879
531,208	0,10909
531,408	0,10956
531,608	0,10994
531,807	0,11047
532,007	0,11091
532,207	0,11123
532,406	0,11158
532,606	0,11205
532,806	0,11259
533,005	0,11308
533,205	0,11326
533,405	0,11358
533,604	0,11387
533,804	0,11428
534,003	0,11452
534,203	0,11494
534,403	0,11512
534,602	0,11556
534,802	0,11583
535,001	0,11604
535,201	0,11645
535,4	0,1167
535,6	0,11697
535,799	0,11732
535,998	0,11764
536,198	0,11789
536,397	0,11822
536,597	0,11865
536,796	0,11896
536,995	0,11934
537,195	0,11973
537,394	0,11987
537,594	0,12044
537,793	0,12064
537,992	0,12101
538,191	0,12135
538,391	0,12187
538,59	0,12227
538,789	0,12255
538,988	0,12272
539,188	0,12287
539,387	0,12316
539,586	0,12368
539,785	0,12387
539,984	0,12435
540,184	0,12444
540,383	0,1246
540,582	0,1247
540,781	0,12501
540,98	0,12537
541,179	0,12573
541,378	0,12613
541,577	0,12642
541,776	0,12666
541,975	0,127
542,174	0,12719
542,373	0,1275
542,572	0,12781
542,771	0,12818
542,97	0,12824
543,169	0,12858
543,368	0,12878
543,567	0,12911
543,766	0,12921
543,965	0,12925
544,164	0,12927
544,362	0,12948
544,561	0,12978
544,76	0,13009
544,959	0,13025
545,158	0,13051
545,356	0,13054
545,555	0,1308
545,754	0,13103
545,953	0,13129
546,151	0,13163
546,35	0,13181
546,549	0,13195
546,748	0,13204
546,946	0,13219
547,145	0,13235
547,344	0,13257
547,542	0,13279
547,741	0,133
547,939	0,13285
548,138	0,13292
548,337	0,13305
548,535	0,13305
548,734	0,13326
548,932	0,13334
549,131	0,13337
549,329	0,13363
549,528	0,13382
549,726	0,13403
549,925	0,13409
550,123	0,13422
550,322	0,13441
550,52	0,13459
550,718	0,13494
550,917	0,13507
551,115	0,13524
551,313	0,13557
551,512	0,1356
551,71	0,13576
551,908	0,13578
552,107	0,13602
552,305	0,13631
552,503	0,13642
552,702	0,13631
552,9	0,13643
553,098	0,13657
553,296	0,13671
553,495	0,13675
553,693	0,13689
553,891	0,13702
554,089	0,1372
554,287	0,13722
554,485	0,13739
554,683	0,13748
554,882	0,13774
555,08	0,13805
555,278	0,1382
555,476	0,13832
555,674	0,13841
555,872	0,13856
556,07	0,1385
556,268	0,13857
556,466	0,1387
556,664	0,13888
556,862	0,13902
557,06	0,13932
557,258	0,13936
557,456	0,13956
557,654	0,13987
557,851	0,13985
558,049	0,13981
558,247	0,1401
558,445	0,14028
558,643	0,14037
558,841	0,14048
559,039	0,14071
559,236	0,14089
559,434	0,14118
559,632	0,1413
559,83	0,14152
560,027	0,14187
560,225	0,1421
560,423	0,14219
560,62	0,14249
560,818	0,14259
561,016	0,14283
561,213	0,14305
561,411	0,14316
561,609	0,14325
561,806	0,14341
562,004	0,14353
562,202	0,14367
562,399	0,14384
562,597	0,14427
562,794	0,14439
562,992	0,14477
563,189	0,14493
563,387	0,14526
563,584	0,14559
563,782	0,14559
563,979	0,14585
564,177	0,14598
564,374	0,14629
564,571	0,14684
564,769	0,14702
564,966	0,14723
565,164	0,14752
565,361	0,14778
565,558	0,14799
565,756	0,14803
565,953	0,14855
566,15	0,14891
566,347	0,14937
566,545	0,1497
566,742	0,1497
566,939	0,14993
567,136	0,15023
567,334	0,15044
567,531	0,15066
567,728	0,15101
567,925	0,15146
568,122	0,15178
568,319	0,15206
568,517	0,15231
568,714	0,15254
568,911	0,15297
569,108	0,15338
569,305	0,15373
569,502	0,15412
569,699	0,15456
569,896	0,15477
570,093	0,15499
570,29	0,15521
570,487	0,15559
570,684	0,15602
570,881	0,15656
571,078	0,15691
571,275	0,15727
571,472	0,15758
571,669	0,15794
571,866	0,15844
572,062	0,15886
572,259	0,1594
572,456	0,15979
572,653	0,16018
572,85	0,16031
573,047	0,16061
573,243	0,16107
573,44	0,16136
573,637	0,16183
573,834	0,16222
574,03	0,16263
574,227	0,16311
574,424	0,1636
574,62	0,16404
574,817	0,16448
575,014	0,16514
575,21	0,1656
575,407	0,16594
575,604	0,16636
575,8	0,16689
575,997	0,1676
576,193	0,16784
576,39	0,1683
576,586	0,16877
576,783	0,16919
576,979	0,16956
577,176	0,16997
577,372	0,17033
577,569	0,17074
577,765	0,17116
577,962	0,17159
578,158	0,17196
578,355	0,17242
578,551	0,17287
578,747	0,17311
578,944	0,17364
579,14	0,17407
579,336	0,1746
579,533	0,17508
579,729	0,17554
579,925	0,17599
580,122	0,17628
580,318	0,17659
580,514	0,1769
580,71	0,17708
580,906	0,17756
581,103	0,17805
581,299	0,17845
581,495	0,17857
581,691	0,17893
581,887	0,17937
582,084	0,17987
582,28	0,18027
582,476	0,18061
582,672	0,18107
582,868	0,18143
583,064	0,1818
583,26	0,18201
583,456	0,18241
583,652	0,18274
583,848	0,18309
584,044	0,18335
584,24	0,18352
584,436	0,18391
584,632	0,18396
584,828	0,18431
585,024	0,18463
585,22	0,18471
585,416	0,18496
585,611	0,18508
585,807	0,18539
586,003	0,18581
586,199	0,18591
586,395	0,18626
586,591	0,18623
586,786	0,18665
586,982	0,18671
587,178	0,187
587,374	0,18722
587,569	0,18732
587,765	0,18742
587,961	0,18762
588,156	0,18746
588,352	0,18758
588,548	0,1876
588,743	0,18783
588,939	0,18769
589,135	0,18783
589,33	0,18774
589,526	0,18774
589,721	0,18778
589,917	0,18776
590,112	0,18762
590,308	0,18746
590,503	0,18757
590,699	0,18743
590,894	0,18738
591,09	0,18743
591,285	0,18723
591,481	0,18703
591,676	0,18699
591,872	0,18679
592,067	0,18664
592,262	0,18645
592,458	0,18642
592,653	0,18615
592,848	0,18588
593,044	0,1856
593,239	0,18537
593,434	0,18504
593,629	0,18493
593,825	0,18459
594,02	0,18447
594,215	0,18432
594,41	0,18399
594,606	0,18354
594,801	0,18317
594,996	0,18291
595,191	0,18259
595,386	0,18204
595,581	0,18162
595,777	0,18116
595,972	0,18069
596,167	0,18002
596,362	0,17931
596,557	0,17888
596,752	0,17854
596,947	0,17793
597,142	0,17737
597,337	0,17682
597,532	0,17647
597,727	0,1759
597,922	0,17528
598,117	0,1747
598,312	0,17411
598,507	0,17351
598,701	0,1727
598,896	0,17197
599,091	0,17138
599,286	0,17065
599,481	0,16979
599,676	0,16914
599,87	0,1684
600,065	0,1676
600,26	0,167
600,455	0,1663
600,65	0,16559
600,844	0,1649
601,039	0,1641
601,234	0,1633
601,428	0,16264
601,623	0,16184
601,818	0,16093
602,012	0,16031
602,207	0,15949
602,402	0,15853
602,596	0,15753
602,791	0,15675
602,985	0,15598
603,18	0,1549
603,374	0,15398
603,569	0,153
603,763	0,15221
603,958	0,15136
604,152	0,15042
604,347	0,14949
604,541	0,14855
604,736	0,1476
604,93	0,14649
605,125	0,14533
605,319	0,14457
605,513	0,14362
605,708	0,14253
605,902	0,14144
606,096	0,14023
606,291	0,13914
606,485	0,13808
606,679	0,13712
606,874	0,13619
607,068	0,13532
607,262	0,1345
607,456	0,1335
607,65	0,13247
607,845	0,13155
608,039	0,13066
608,233	0,12973
608,427	0,1287
608,621	0,12762
608,815	0,12651
609,01	0,1256
609,204	0,12459
609,398	0,12368
609,592	0,12265
609,786	0,12165
609,98	0,12078
610,174	0,11965
610,368	0,11858
610,562	0,1175
610,756	0,1166
610,95	0,11571
611,144	0,11462
611,338	0,11355
611,532	0,11241
611,726	0,11147
611,919	0,11049
612,113	0,10936
612,307	0,10837
612,501	0,10754
612,695	0,1066
612,889	0,10558
613,082	0,10452
613,276	0,1036
613,47	0,10266
613,664	0,10163
613,857	0,10044
614,051	0,09952
614,245	0,09853
614,439	0,09758
614,632	0,09658
614,826	0,0957
615,02	0,09477
615,213	0,09393
615,407	0,09298
615,6	0,09198
615,794	0,09106
615,988	0,09021
616,181	0,08922
616,375	0,08833
616,568	0,08756
616,762	0,08658
616,955	0,08564
617,149	0,08471
617,342	0,08361
617,536	0,08277
617,729	0,08196
617,923	0,08127
618,116	0,08048
618,309	0,07957
618,503	0,07874
618,696	0,07776
618,889	0,07693
619,083	0,07597
619,276	0,0752
619,469	0,07445
619,663	0,07357
619,856	0,07281
620,049	0,07197
620,242	0,07121
620,436	0,07036
620,629	0,06959
620,822	0,06894
621,015	0,06806
621,209	0,06745
621,402	0,06666
621,595	0,06596
621,788	0,06522
621,981	0,06451
622,174	0,06369
622,367	0,06299
622,56	0,06235
622,753	0,06163
622,946	0,06078
623,139	0,06011
623,332	0,0594
623,525	0,05858
623,718	0,05786
623,911	0,05716
624,104	0,05634
624,297	0,05564
624,49	0,05499
624,683	0,05432
624,876	0,05366
625,069	0,05288
625,262	0,05239
625,454	0,05181
625,647	0,05135
625,84	0,05069
626,033	0,05013
626,226	0,04955
626,418	0,04891
626,611	0,04833
626,804	0,04771
626,997	0,04706
627,189	0,04669
627,382	0,04607
627,575	0,0455
627,767	0,04499
627,96	0,04443
628,153	0,0438
628,345	0,04328
628,538	0,04273
628,731	0,04222
628,923	0,04175
629,116	0,04141
629,308	0,0408
629,501	0,0403
629,693	0,03984
629,886	0,0394
630,078	0,03882
630,271	0,03851
630,463	0,03803
630,656	0,03763
630,848	0,03715
631,04	0,03673
631,233	0,03616
631,425	0,03582
631,617	0,03532
631,81	0,03484
632,002	0,03428
632,194	0,03403
632,387	0,03352
632,579	0,03309
632,771	0,03265
632,964	0,03219
633,156	0,03177
633,348	0,03139
633,54	0,03098
633,732	0,03054
633,925	0,0302
634,117	0,02999
634,309	0,02956
634,501	0,02921
634,693	0,02886
634,885	0,02852
635,077	0,02814
635,269	0,02782
635,462	0,02754
635,654	0,02727
635,846	0,02711
636,038	0,0268
636,23	0,02637
636,422	0,02609
636,614	0,02576
636,806	0,02554
636,997	0,02529
637,189	0,02503
637,381	0,02465
637,573	0,02431
637,765	0,02393
637,957	0,02348
638,149	0,02312
638,341	0,0229
638,532	0,02266
638,724	0,02231
638,916	0,02207
639,108	0,02175
639,299	0,02159
639,491	0,02134
639,683	0,02126
639,875	0,02109
640,066	0,02095
640,258	0,0207
640,45	0,02041
640,641	0,02027
640,833	0,02018
641,025	0,01991
641,216	0,01968
641,408	0,01946
641,599	0,01929
641,791	0,01902
641,982	0,01879
642,174	0,01848
642,366	0,01834
642,557	0,01809
642,748	0,01766
642,94	0,0174
643,131	0,01711
643,323	0,01695
643,514	0,01675
643,706	0,01663
643,897	0,01634
644,088	0,01613
644,28	0,01604
644,471	0,01575
644,662	0,01564
644,854	0,0156
645,045	0,0155
645,236	0,01531
645,428	0,01512
645,619	0,01478
645,81	0,0146
646,001	0,01431
646,193	0,01418
646,384	0,014
646,575	0,01394
646,766	0,01379
646,957	0,01359
647,148	0,01337
647,339	0,0133
647,531	0,01325
647,722	0,01317
647,913	0,01295
648,104	0,01294
648,295	0,0127
648,486	0,01258
648,677	0,01236
648,868	0,01221
649,059	0,01213
649,25	0,01199
649,441	0,01186
649,632	0,01157
649,823	0,01155
650,013	0,01151
650,204	0,01133
650,395	0,01128
650,586	0,01123
650,777	0,01113
650,968	0,01095
651,159	0,01087
651,349	0,01069
651,54	0,01047
651,731	0,01041
651,922	0,01024
652,112	0,01005
652,303	0,00999
652,494	0,0099
652,684	0,00972
652,875	0,00965
653,066	0,00965
653,256	0,00954
653,447	0,00956
653,638	0,0095
653,828	0,0093
654,019	0,00918
654,209	0,00914
654,4	0,00903
654,59	0,009
654,781	0,00903
654,972	0,00897
655,162	0,00884
655,352	0,00875
655,543	0,00862
655,733	0,00855
655,924	0,00867
656,114	0,0085
656,305	0,00831
656,495	0,00828
656,685	0,00799
656,876	0,0078
657,066	0,00759
657,256	0,00759
657,447	0,0075
657,637	0,00753
657,827	0,00756
658,017	0,00743
658,208	0,00746
658,398	0,00742
658,588	0,00727
658,778	0,00725
658,968	0,00716
659,159	0,00718
659,349	0,007
659,539	0,00686
659,729	0,00671
659,919	0,00665
660,109	0,00659
660,299	0,00661
660,489	0,00669
660,679	0,00663
660,869	0,0067
661,059	0,00672
661,249	0,00667
661,439	0,0067
661,629	0,00666
661,819	0,00665
662,009	0,00652
662,199	0,00643
662,389	0,00636
662,579	0,00624
662,769	0,00619
662,959	0,0061
663,149	0,00601
663,338	0,00602
663,528	0,00597
663,718	0,00598
663,908	0,00585
664,097	0,0058
664,287	0,00578
664,477	0,00568
664,667	0,00553
664,856	0,00551
665,046	0,0055
665,236	0,0055
665,425	0,00543
665,615	0,00537
665,805	0,00536
665,994	0,0054
666,184	0,00539
666,373	0,00541
666,563	0,00545
666,753	0,00556
666,942	0,00557
667,132	0,00542
667,321	0,00536
667,511	0,00535
667,7	0,00529
667,889	0,00507
668,079	0,00504
668,268	0,00508
668,458	0,00497
668,647	0,00486
668,836	0,00476
669,026	0,00467
669,215	0,00471
669,404	0,00475
669,594	0,00472
669,783	0,00469
669,972	0,00478
670,162	0,00473
670,351	0,00461
670,54	0,00447
670,729	0,0045
670,919	0,00452
671,108	0,00448
671,297	0,00447
671,486	0,00436
671,675	0,00429
671,864	0,0043
672,053	0,00433
672,243	0,00431
672,432	0,0043
672,621	0,00437
672,81	0,00428
672,999	0,0042
673,188	0,00427
673,377	0,00425
673,566	0,00425
673,755	0,00422
673,944	0,00411
674,133	0,0039
674,322	0,00391
674,51	0,00402
674,699	0,00398
674,888	0,00395
675,077	0,00391
675,266	0,00379
675,455	0,00382
675,644	0,00373
675,832	0,00373
676,021	0,00374
676,21	0,00384
676,399	0,00374
676,587	0,00358
676,776	0,0035
676,965	0,0035
677,153	0,00352
677,342	0,00354
677,531	0,00343
677,719	0,00342
677,908	0,00339
678,097	0,00343
678,285	0,0034
678,474	0,00338
678,662	0,00343
678,851	0,00348
679,039	0,00345
679,228	0,0034
679,416	0,0035
679,605	0,00341
679,793	0,00348
679,982	0,00342
680,17	0,00336
680,359	0,00339
680,547	0,00344
680,736	0,00336
680,924	0,00341
681,112	0,0034
681,301	0,00342
681,489	0,00332
681,677	0,00341
681,866	0,00329
682,054	0,00325
682,242	0,00325
682,43	0,00332
682,619	0,00321
682,807	0,00313
682,995	0,00301
683,183	0,00295
683,371	0,00301
683,559	0,00293
683,748	0,00281
683,936	0,00287
684,124	0,00299
684,312	0,00295
684,5	0,00273
684,688	0,0028
684,876	0,00276
685,064	0,00276
685,252	0,00279
685,44	0,00265
685,628	0,00266
685,816	0,00279
686,004	0,00283
686,192	0,00271
686,38	0,00271
686,568	0,00275
686,756	0,00269
686,944	0,00271
687,131	0,0028
687,319	0,00283
687,507	0,00282
687,695	0,00275
687,883	0,00267
688,07	0,00264
688,258	0,00271
688,446	0,00269
688,634	0,00273
688,821	0,00271
689,009	0,00269
689,197	0,00271
689,384	0,00273
689,572	0,00274
689,76	0,0028
689,947	0,00277
690,135	0,00269
690,323	0,00263
690,51	0,00262
690,698	0,00261
690,885	0,00268
691,073	0,00264
691,26	0,00248
691,448	0,00244
691,635	0,00243
691,823	0,00239
692,01	0,00232
692,197	0,00232
692,385	0,00232
692,572	0,00229
692,76	0,00229
692,947	0,00229
693,134	0,00239
693,322	0,00242
693,509	0,00235
693,696	0,00228
693,884	0,00224
694,071	0,0023
694,258	0,00229
694,445	0,00231
694,633	0,00236
694,82	0,00218
695,007	0,00219
695,194	0,00215
695,381	0,00212
695,568	0,00217
695,756	0,0022
695,943	0,00226
696,13	0,00226
696,317	0,00232
696,504	0,0022
696,691	0,00213
696,878	0,00224
697,065	0,00209
697,252	0,00212
697,439	0,00218
697,626	0,00216
697,813	0,00221
698	0,00206
698,187	0,00206
698,374	0,00198
698,561	0,00205
698,747	0,00209
698,934	0,0021
699,121	0,0022
699,308	0,00215
699,495	0,00203
699,682	0,00207
699,868	0,00195
700,055	0,00197
700,242	0,00194
700,429	0,0019
700,615	0,00183
700,802	0,00182
700,989	0,00178
701,175	0,00168
701,362	0,0017
701,549	0,00174
701,735	0,00166
701,922	0,00176
702,108	0,00183
702,295	0,00185
702,482	0,00189
702,668	0,00195
702,855	0,00187
703,041	0,00187
703,228	0,0019
703,414	0,00193
703,601	0,002
703,787	0,00198
703,973	0,00199
704,16	0,00185
704,346	0,0019
704,533	0,00188
704,719	0,00188
704,905	0,00179
705,092	0,00176
705,278	0,00178
705,464	0,00175
705,65	0,00172
705,837	0,00172
706,023	0,00164
706,209	0,00177
706,395	0,00168
706,582	0,0017
706,768	0,00168
706,954	0,00192
707,14	0,00184
707,326	0,00176
707,512	0,00168
707,698	0,00162
707,885	0,00155
708,071	0,00158
708,257	0,00148
708,443	0,00152
708,629	0,00151
708,815	0,00145
709,001	0,0013
709,187	0,00132
709,373	0,00145
709,559	0,00145
709,745	0,00145
709,93	0,00145
710,116	0,00146
710,302	0,00158
710,488	0,00154
710,674	0,00154
710,86	0,00159
711,046	0,00171
711,231	0,00182
711,417	0,00174
711,603	0,00178
711,789	0,00169
711,974	0,00175
712,16	0,00167
712,346	0,00166
712,532	0,0017
712,717	0,00167
712,903	0,00158
713,089	0,00152
713,274	0,00146
713,46	0,00139
713,645	0,0014
713,831	0,00151
714,016	0,00145
714,202	0,00155
714,388	0,00165
714,573	0,0016
714,759	0,0016
714,944	0,00162
715,129	0,00155
715,315	0,00155
715,5	0,00159
715,686	0,00153
715,871	0,0015
716,057	0,00152
716,242	0,00158
716,427	0,00136
716,613	0,00138
716,798	0,00131
716,983	0,0013
717,168	0,00135
717,354	0,00143
717,539	0,00147
717,724	0,00151
717,909	0,00158
718,095	0,00154
718,28	0,00136
718,465	0,0014
718,65	0,00137
718,835	0,00134
719,02	0,00138
719,206	0,00138
719,391	0,00137
719,576	0,00127
719,761	0,00121
719,946	0,00111
720,131	0,00117
720,316	0,00118
720,501	0,00109
720,686	0,00115
720,871	0,00126
721,056	0,00123
721,241	0,00114
721,426	0,00108
721,61	0,00123
721,795	0,00126
721,98	0,00133
722,165	0,00132
722,35	0,00148
722,535	0,00155
722,719	0,00146
722,904	0,00143
723,089	0,00134
723,274	0,0014
723,458	0,00133
723,643	0,00128
723,828	0,00128
724,013	0,0012
724,197	0,00117
724,382	0,001
724,567	0,00106
724,751	0,00115
724,936	0,00113
725,12	0,00119
725,305	0,00121
725,489	0,0013
725,674	0,0012
725,859	0,00129
726,043	0,00128
726,228	0,00137
726,412	0,00149
726,596	0,00141
726,781	0,00137
726,965	0,00141
727,15	0,00155
727,334	0,00141
727,518	0,00131
727,703	0,00141
727,887	0,00128
728,072	0,0013
728,256	0,00122
728,44	0,00118
728,624	0,00119
728,809	0,00111
728,993	0,00107
729,177	0,00094
729,361	0,00108
729,546	0,00114
729,73	0,0011
729,914	0,00102
730,098	0,001
730,282	0,00093
730,466	0,00089
730,65	0,00095
730,834	0,00099
731,019	0,00099
731,203	0,00099
731,387	0,00105
731,571	0,00099
731,755	0,00099
731,939	0,00105
732,123	0,00113
732,306	0,00119
732,49	0,00125
732,674	0,00125
732,858	0,00123
733,042	0,00126
733,226	0,00133
733,41	0,00126
733,594	0,00127
733,778	0,00125
733,961	0,00132
734,145	0,00127
734,329	0,0013
734,513	0,00127
734,696	0,00125
734,88	0,00126
735,064	0,00117
735,247	0,00105
735,431	0,00113
735,615	0,00113
735,798	0,00119
735,982	0,00125
736,166	0,00134
736,349	0,00129
736,533	0,00129
736,716	0,00137
736,9	0,00135
737,083	0,00136
737,267	0,00142
737,45	0,00128
737,634	0,00128
737,817	0,00121
738,001	0,00113
738,184	0,00099
738,368	0,00108
738,551	0,00097
738,734	0,0008
738,918	0,0009
739,101	0,00108
739,284	0,00103
739,468	0,00099
739,651	0,00113
739,834	0,00111
740,018	0,00103
740,201	0,0011
740,384	0,00104
740,567	0,00116
740,75	0,00122
740,934	0,00115
741,117	0,001
741,3	0,00109
741,483	0,00118
741,666	0,00101
741,849	0,00102
742,032	0,00112
742,215	0,0011
742,399	0,00115
742,582	0,00113
742,765	0,00113
742,948	0,00114
743,131	0,00122
743,314	0,00112
743,496	0,0011
743,679	0,00118
743,862	0,00122
744,045	0,00122
744,228	0,00118
744,411	0,00108
744,594	0,00106
744,777	0,00105
744,959	0,00108
745,142	0,0011
745,325	0,00118
745,508	0,00101
745,691	0,00108
745,873	0,00106
746,056	0,00102
746,239	0,00092
746,421	0,00106
746,604	0,00101
746,787	0,00111
746,969	0,00115
747,152	0,00115
747,335	0,00112
747,517	0,00134
747,7	0,00141
747,882	0,00141
748,065	0,00125
748,247	0,00134
748,43	0,00122
748,612	0,00123
748,795	0,00114
748,977	0,00097
749,16	0,00086
749,342	0,00095
749,524	0,00089
749,707	0,00076
749,889	0,00074
750,072	0,00083
750,254	0,00082
750,436	0,00076
750,619	0,00083
750,801	0,00074
750,983	0,00082
751,165	0,00082
751,348	0,00067
751,53	0,00058
751,712	0,00057
751,894	0,00054
752,076	0,00072
752,259	0,00073
752,441	0,00081
752,623	0,00082
752,805	0,00078
752,987	0,00073
753,169	0,00072
753,351	0,00071
753,533	0,00077
753,715	0,0008
753,897	0,00071
754,079	0,00065
754,261	0,00063
754,443	0,00062
754,625	0,00055
754,807	0,00063
754,989	0,00071
755,171	0,00078
755,353	0,00085
755,534	0,00089
755,716	0,00085
755,898	0,00092
756,08	0,00094
756,262	0,00097
756,443	0,00087
756,625	0,0009
756,807	0,00088
756,989	0,00085
757,17	0,00086
757,352	0,00089
757,534	0,00087
757,715	0,00082
757,897	0,00094
758,079	0,00083
758,26	0,00084
758,442	0,00097
758,623	0,001
758,805	0,00112
758,987	0,00104
759,168	0,00101
759,35	0,0009
759,531	0,00088
759,713	0,00085
759,894	0,0007
760,075	0,00065
760,257	0,00053
760,438	0,00048
760,62	0,00033
760,801	0,00027
760,982	0,00027
761,164	0,00019
761,345	0,00027
761,526	0,00031
761,708	0,00029
761,889	0,00035
762,07	0,00049
762,251	0,00067
762,433	0,00065
762,614	0,0008
762,795	0,00082
762,976	0,00081
763,157	0,0009
763,338	0,00082
763,52	0,00078
763,701	0,00082
763,882	0,00079
764,063	0,00081
764,244	0,00068
764,425	0,00071
764,606	0,00061
764,787	0,00054
764,968	0,00058
765,149	0,00043
765,33	0,00039
765,511	0,00035
765,692	0,00036
765,873	0,00047
766,053	0,00036
766,234	0,00037
766,415	0,00044
766,596	0,00033
766,777	0,00028
766,958	0,00033
767,138	0,00044
767,319	0,00037
767,5	0,00048
767,681	0,00037
767,861	0,00031
768,042	0,0003
768,223	0,00033
768,403	0,00021
768,584	0,0004
768,765	0,00034
768,945	0,00027
769,126	0,00032
769,307	0,00054
769,487	0,00047
769,668	0,00056
769,848	0,00054
770,029	0,00056
770,209	0,00037
770,39	0,00035
770,57	0,00031
770,751	0,00041
770,931	0,00045
771,111	0,0003
771,292	0,00023
771,472	0,0002
771,653	0,00015
771,833	0,00011
772,013	0,00015
772,194	0,00041
772,374	0,00036
772,554	0,0003
772,734	0,00032
772,915	0,00033
773,095	0,00043
773,275	0,00036
773,455	0,00036
773,635	0,00024
773,816	0,00028
773,996	0,00031
774,176	0,00027
774,356	0,00039
774,536	0,00049
774,716	0,0004
774,896	0,00034
775,076	0,00019
775,256	0,00029
775,436	0,00043
775,616	0,00064
775,796	0,00067
775,976	0,00063
776,156	0,00056
776,336	0,00047
776,516	0,00033
776,696	0,00031
776,876	0,00035
777,056	0,00043
777,235	0,00033
777,415	0,00028
777,595	0,00018
777,775	0,00009
777,955	0,00003
778,134	0,00002
778,314	0,00015
778,494	0,00014
778,674	0,00025
778,853	0,00019
779,033	0,00018
779,213	0,00024
779,392	0,00016
779,572	0,00012
779,751	0,00018
779,931	0,00032
780,111	0,00031
780,29	0,00023
780,47	0,00029
780,649	0,00017
780,829	0,00021
781,008	0,00029
781,188	0,00025
781,367	0,00029
781,546	0,00037
781,726	0,00033
781,905	0,00016
782,085	0,00008
782,264	0,00009
782,443	0,00018
782,623	0,00017
782,802	0,00017
782,981	0,00007
783,161	0,00003
783,34	-0,00003
783,519	0,00006
783,698	0,00007
783,878	0,00012
784,057	0,00015
784,236	0,00024
784,415	0,00026
784,594	0,00047
784,773	0,00048
784,952	0,00061
785,132	0,00057
785,311	0,00067
785,49	0,00058
785,669	0,00059
785,848	0,00063
786,027	0,00065
786,206	0,00057
786,385	0,00039
786,564	0,00029
786,743	0,00027
786,922	0,00025
787,1	0,00044
787,279	0,00041
787,458	0,00033
787,637	0,00033
787,816	0,00036
787,995	0,0003
788,174	0,00031
788,352	0,00049
788,531	0,00051
788,71	0,00049
788,889	0,00047
789,067	0,00026
789,246	0,00023
789,425	0,00031
789,603	0,00021
789,782	0,00012
789,961	0,00021
790,139	0,0002
790,318	0,00009
790,496	0,0001
790,675	0,00016
790,853	0,00009
791,032	0,00012
791,211	0,00016
791,389	0,00007
791,568	0,00028
791,746	0,00043
791,924	0,00044
792,103	0,00047
792,281	0,00038
792,46	0,00031
792,638	0,00038
792,816	0,0006
792,995	0,00069
793,173	0,0007
793,351	0,00079
793,53	0,00068
793,708	0,00055
793,886	0,0005
794,064	0,00046
794,243	0,00064
794,421	0,00069
794,599	0,00064
794,777	0,00037
794,955	0,00023
795,133	0,00028
795,312	0,00024
795,49	0,00015
795,668	0,00023
795,846	0,00029
796,024	0,00036
796,202	0,00025
796,38	0,00015
796,558	0,00002
796,736	0,0001
796,914	0,0003
797,092	0,00018
797,27	0,00025
797,448	0,00023
797,626	0,00005
797,803	0
797,981	-0,00015
798,159	-0,00014
798,337	0,00002
798,515	0,00008
798,693	0,00005
798,87	-0,00013
799,048	0
799,226	-0,00013
799,404	-0,0001
799,581	-0,00001
799,759	-0,00004
799,937	0,00006
800,114	0,00009
800,292	0,00002
800,469	0,00005
800,647	-0,00002
800,825	0,00004
801,002	-0,00009
801,18	-0,00008
801,357	0,00002
801,535	0,00001
801,712	0,00007
801,89	0,00004
802,067	0,00006
802,245	0,00006
802,422	0,00005
802,6	0,00014
802,777	0,00014
802,954	0,00022
803,132	0,00028
803,309	0,00016
803,486	0,00019
803,664	0,0002
803,841	0,00031
804,018	0,00027
804,195	0,00028
804,373	0,00019
804,55	0,00028
804,727	0,00028
804,904	0,00029
805,081	0,0003
805,259	0,00039
805,436	0,00029
805,613	0,00026
805,79	0,00019
805,967	0,00031
806,144	0,00032
806,321	0,00029
806,498	0,00024
806,675	0,00025
806,852	0,00021
807,029	0,00034
807,206	0,00029
807,383	0,00043
807,56	0,00052
807,737	0,00043
807,914	0,00024
808,091	0,00025
808,268	0,00037
808,444	0,00037
808,621	0,00028
808,798	0,0001
808,975	-0,0001
809,152	-0,00016
809,328	-0,00017
809,505	-0,00022
809,682	-0,00015
809,858	-0,00014
810,035	-0,00014
810,212	-0,00026
810,388	-0,00018
810,565	0,0001
810,742	0,00022
810,918	0,00014
811,095	0,00023
811,271	0,00034
811,448	0,00029
811,625	0,00023
811,801	0,00027
811,978	0,0003
812,154	0,00019
812,33	0,0001
812,507	-0,00002
812,683	0,00014
812,86	0,00029
813,036	0,00032
813,212	0,00018
813,389	0,00029
813,565	0,00019
813,741	0,0002
813,918	0,00011
814,094	0,00031
814,27	0,00027
814,447	0,0002
814,623	0,00011
814,799	0,00009
814,975	0,00008
815,151	0,0001
815,328	0,00004
815,504	0,00015
815,68	0,00016
815,856	0,00025
816,032	0,00036
816,208	0,00032
816,384	0,00017
816,56	0,00016
816,736	0,00018
816,912	0,0001
817,088	0,00004
817,264	0
817,44	-0,00001
817,616	0,00008
817,792	0,00003
817,968	0,00006
818,144	0,00027
818,32	0,00044
818,495	0,00044
818,671	0,0004
818,847	0,00032
819,023	0,00034
819,199	0,00038
819,374	0,00051
819,55	0,00031
819,726	0,00031
819,902	0,00019
820,077	0,00008
820,253	0,00003
820,429	0
820,604	0,00015
820,78	0,00033
820,956	0,00025
821,131	0,00019
821,307	0,00011
821,482	0,00023
821,658	0,0005
821,833	0,00025
822,009	0,00018
822,184	0,00031
822,36	0,00044
822,535	0,0004
822,711	0,00031
822,886	0,0005
823,061	0,00034
823,237	0,00047
823,412	0,00031
823,587	-0,00016
823,763	0,00008
823,938	0,0001
824,113	-0,00004
824,289	-0,00027
824,464	-0,00017
824,639	-0,00004
824,814	-0,00022
824,99	-0,00018
825,165	-0,00025
825,34	0,00004
825,515	0,00028
825,69	0,00031
825,865	0,00037
826,04	0,00057
826,215	0,00074
826,39	0,0007
826,566	0,00062
826,741	0,00089
826,916	0,00123
827,091	0,00099
827,265	0,00088
827,44	0,00083
827,615	0,00088
827,79	0,00078
827,965	0,00066
828,14	0,00064
828,315	0,00069
828,49	0,00064
828,665	0,00047
828,839	0,00017
829,014	0,00034
829,189	0,00026
829,364	0,00027
829,538	0,00027
829,713	0,00016
829,888	0,00021
830,063	0,00015
830,237	-0,00016
830,412	-0,00007
830,587	0,00006
830,761	0,00024
830,936	0,00024
831,11	0,00021
831,285	0,00015
831,459	0,00022
831,634	0,00041
831,809	0,00045
831,983	0,00039
832,157	0,00056
832,332	0,00051
832,506	0,00046
832,681	0,00026
832,855	0,00026
833,03	0,00019
833,204	0,00033
833,378	0,00027
833,553	0,00009
833,727	0,0001
833,901	0,00003
834,076	0,00006
834,25	-0
834,424	0,00007
834,598	0,0004
834,773	0,00051
834,947	0,00074
835,121	0,00064
835,295	0,00061
835,469	0,00071
835,643	0,00052
835,817	0,00057
835,991	0,0004
836,166	0,00041
836,34	0,00044
836,514	0,00014
836,688	0,00006
836,862	0,0001
837,036	0,00014
837,21	0,00027
837,384	0,00022
837,557	0,00038
837,731	0,00045
837,905	0,00061
838,079	0,00056
838,253	0,00036
838,427	0,00047
838,601	0,00036
838,774	0,00026
838,948	0,00013
839,122	-0,00004
839,296	0,00012
839,469	0,00018
839,643	0,00003
839,817	-0,00022
839,991	-0,00024
840,164	-0,00013
840,338	-0,00024
840,512	-0,00013
840,685	-0,00004
840,859	0,00012
841,032	0,00009
841,206	0,00011
841,379	-0,00003
841,553	0,00014
841,726	0,00043
841,9	0,00073
842,073	0,00099
842,247	0,00094
842,42	0,00084
842,594	0,00076
842,767	0,00077
842,94	0,00077
843,114	0,0009
843,287	0,00093
843,46	0,00082
843,634	0,0007
843,807	0,00048
843,98	0,00018
844,154	0,00032
844,327	0,00032
844,5	0,00012
844,673	0,00025
844,846	0,00019
845,02	0,00008
845,193	-0,00018
845,366	-0,00018
845,539	-0,00029
845,712	-0,00033
845,885	-0,00047
846,058	-0,00047
846,231	-0,00056
846,404	-0,00038
846,577	-0,00046
846,75	-0,00026
846,923	-0,00027
847,096	-0,0002
847,269	0,00005
847,442	0,00025
847,615	0,00037
847,788	0,00054
847,961	0,00067
848,133	0,0009
848,306	0,00088
848,479	0,00071
848,652	0,00069
848,825	0,00065
848,997	0,00087
849,17	0,0007
849,343	0,00054
849,515	0,00049
849,688	0,00022
849,861	0,00006
850,033	0,00009
850,206	0,00021
850,379	0,00022
850,551	0,00008
850,724	0,00011
850,896	-0,00023
851,069	-0,00018
851,241	-0,00004
851,414	0,00009
851,586	0,00009
851,759	0,0001
851,931	-0,00009
852,104	-0,00022
852,276	-0,00033
852,449	-0,00025
852,621	-0,00024
852,793	-0,00004
852,966	0,00001
853,138	0,00006
853,31	-0,00004
853,483	0,00021
853,655	0,00014
853,827	0,00005
853,999	0,00001
854,172	0,00013
854,344	0,0002
854,516	0,00006
854,688	0,00008
854,86	0,00009
855,032	-0,0001
855,204	-0,00011
855,377	-0,00029
855,549	-0,00026
855,721	-0,0002
855,893	-0,00004
856,065	-0,00015
856,237	-0,00027
856,409	-0,00002
856,581	0,00019
856,753	0,00034
856,924	0,00053
857,096	0,00056
857,268	0,00077
857,44	0,00065
857,612	0,00072
857,784	0,00043
857,956	0,00076
858,127	0,00085
858,299	0,0006
858,471	0,0005
858,643	0,00026
858,814	0,00036
858,986	0,00039
859,158	0,00037
859,33	0,00064
859,501	0,00049
859,673	0,00084
859,844	0,00058
860,016	0,00049
860,188	0,00079
860,359	0,00088
860,531	0,00091
860,702	0,00064
860,874	0,00045
861,045	0,00035
861,217	0,00022
861,388	0,00057
861,56	0,00037
861,731	0,00036
861,902	0,00041
862,074	0,00007
862,245	0,00002
862,417	0,00008
862,588	-0,00011
862,759	-0,00003
862,931	-0
863,102	0,00005
863,273	-0,00019
863,444	-0,00031
863,616	-0,00015
863,787	-0,00028
863,958	-0,00013
864,129	-0,00017
864,3	-0,00028
864,471	-0,00002
864,642	0,00019
864,814	0,00009
864,985	0,00007
865,156	-0,00006
865,327	-0,00009
865,498	0,00003
865,669	0,00003
865,84	-0,00006
866,011	-0,00005
866,182	-0,00005
866,353	-0,00008
866,523	-0,0004
866,694	-0,00002
866,865	0,00011
867,036	0,00008
867,207	0,00011
867,378	-0,00026
867,549	-0,00038
867,719	-0,00046
867,89	-0,0008
868,061	-0,00077
868,232	-0,00064
868,402	-0,00059
868,573	-0,00101
868,744	-0,00096
868,914	-0,00067
869,085	-0,00071
869,256	-0,00071
869,426	-0,00067
869,597	-0,00047
869,767	-0,00018
869,938	0,00003
870,108	-0,00008
870,279	-0
870,449	0,00001
870,62	-0,00018
870,79	-0,00024
870,961	0,00011
871,131	0,00025
871,302	0,00056
871,472	0,00058
871,642	0,0005
871,813	0,00016
871,983	-0,00004
872,153	0,00001
872,324	0,00009
872,494	-0,00002
872,664	-0,00024
872,835	-0,00032
873,005	-0,00012
873,175	-0,00044
873,345	-0,0005
873,515	-0,00065
873,685	-0,00074
873,856	-0,00038
874,026	-0,00048
874,196	-0,00034
874,366	-0,00016
874,536	-0,00011
874,706	0,00001
874,876	-0,0003
875,046	-0,0003
875,216	-0,00023
875,386	0,00005
875,556	0,00048
875,726	0,0003
875,896	0,00031
876,066	0,00027
876,236	-0,00009
876,405	-0,00005
876,575	-0,00028
876,745	-0,00011
876,915	0,00022
877,085	0,00024
877,254	0,00032
877,424	0,00042
877,594	0,00054
877,764	0,00066
877,933	0,00051
878,103	0,00076
878,273	0,00125
878,442	0,00127
878,612	0,00123
878,781	0,00075
878,951	0,00066
879,121	0,00058
879,29	0,00019
879,46	0,00004
879,629	0,00005
879,799	0,00006
879,968	0,00041
880,138	0,00029
880,307	0,0002
880,476	0,0002
880,646	0,00024
880,815	0,00022
880,985	0,00013
881,154	0,0002
881,323	0,00013
881,493	0,00001
881,662	-0,00013
881,831	-0,00048
882	-0,00065
882,17	-0,00037
882,339	-0,0006
882,508	-0,00031
882,677	-0,00004
882,846	0,00011
883,016	0,00006
883,185	0,0002
883,354	0,00025
883,523	0,00057
883,692	0,00069
883,861	0,00065
884,03	0,00004
884,199	0,0003
884,368	0,00033
884,537	-0,00007
884,706	-0,00024
884,875	-0,00039
885,044	-0,00027
885,213	0,00004
885,382	-0,00011
885,55	-0,00041
885,719	-0,00042
885,888	0,00021
886,057	0,00006
886,226	-0,0002
886,395	0,00015
886,563	0,00009
886,732	0,00049
886,901	0,0003
887,069	0,00015
887,238	0,00011
887,407	0,0005
887,575	0,0007
887,744	0,0005
887,913	0,00063
888,081	0,00084
888,25	0,00072
888,418	0,0008
888,587	0,00036
888,755	0,00039
888,924	0,00028
889,092	0,00059
889,261	0,00061
889,429	0,00045
889,598	0,00047
889,766	0,00058
889,935	0,00042
890,103	0,00008
890,271	0,00008
890,44	0,00048
890,608	0,00008
890,776	0,00005
890,944	-0,00005
891,113	-0,0003
891,281	-0,00039
891,449	-0,00024
891,617	-0,0006
891,786	-0,00054
891,954	-0,00058
892,122	-0,00025
892,29	-0,00025
892,458	-0,00011
892,626	0,00003
892,794	-0,0001
892,962	0,00003
893,13	0,00007
893,298	-0,0002
893,466	0,00029
