Data from Absorbance__3__156.txt Node

Date: Mon Nov 04 09:55:13 CET 2024
User: r0948668
Spectrometer: S05006
Trigger mode: 0
Resolution mode: 1024 pixels
Integration Time (sec): 4,646000E-3
Scans to average: 10
Nonlinearity correction enabled: false
Boxcar width: 5
Baseline correction enabled: true
XAxis mode: Wavelengths
Number of Pixels in Spectrum: 1024
>>>>>Begin Spectral Data<<<<<
336,523	0,05
336,98	0,05
337,437	0,04
337,893	0,04
338,35	0,04
338,807	0,03
339,264	0,03
339,72	0,03
340,177	0,03
340,634	0,02
341,091	0,02
341,548	0,03
342,005	0,02
342,462	0,03
342,919	0,04
343,376	0,05
343,833	0,05
344,29	0,06
344,748	0,05
345,205	0,05
345,662	0,06
346,119	0,07
346,577	0,06
347,034	0,06
347,491	0,05
347,949	0,04
348,406	0,04
348,864	0,03
349,321	0,03
349,779	0,03
350,236	0,03
350,694	0,03
351,151	0,02
351,609	0,02
352,067	0,02
352,524	0,03
352,982	0,03
353,44	0,03
353,898	0,03
354,356	0,03
354,814	0,03
355,271	0,02
355,729	0,02
356,187	0,02
356,645	0,02
357,103	0,02
357,561	0,02
358,02	0,02
358,478	0,02
358,936	0,02
359,394	0,02
359,852	0,02
360,311	0,02
360,769	0,02
361,227	0,02
361,686	0,02
362,144	0,02
362,602	0,02
363,061	0,02
363,519	0,02
363,978	0,02
364,436	0,02
364,895	0,02
365,354	0,01
365,812	0,02
366,271	0,01
366,73	0,01
367,188	0,01
367,647	0,01
368,106	0,01
368,565	0,01
369,024	0,01
369,482	0
369,941	0
370,4	0,01
370,859	0,01
371,318	0,01
371,778	0,01
372,237	0,01
372,696	0,01
373,155	0,01
373,614	0,02
374,073	0,02
374,533	0,02
374,992	0,02
375,451	0,02
375,911	0,01
376,37	0,01
376,829	0,01
377,289	0,01
377,748	0,01
378,208	0,01
378,667	0,01
379,127	0,01
379,587	0,01
380,046	0,01
380,506	0,01
380,966	0,01
381,425	0,01
381,885	0,01
382,345	0,02
382,805	0,02
383,265	0,01
383,725	0,02
384,185	0,02
384,645	0,02
385,105	0,02
385,565	0,02
386,025	0,02
386,485	0,02
386,945	0,02
387,405	0,02
387,865	0,02
388,326	0,02
388,786	0,02
389,246	0,02
389,707	0,02
390,167	0,02
390,627	0,02
391,088	0,02
391,548	0,02
392,009	0,02
392,469	0,02
392,93	0,02
393,391	0,02
393,851	0,02
394,312	0,02
394,773	0,02
395,233	0,03
395,694	0,02
396,155	0,03
396,616	0,03
397,077	0,03
397,538	0,03
397,999	0,03
398,46	0,03
398,921	0,03
399,382	0,03
399,843	0,03
400,304	0,03
400,765	0,03
401,226	0,03
401,687	0,03
402,149	0,03
402,61	0,03
403,071	0,03
403,533	0,03
403,994	0,03
404,455	0,03
404,917	0,03
405,378	0,03
405,84	0,03
406,301	0,03
406,763	0,03
407,225	0,03
407,686	0,03
408,148	0,03
408,61	0,03
409,071	0,03
409,533	0,03
409,995	0,03
410,457	0,03
410,919	0,03
411,381	0,03
411,843	0,03
412,305	0,03
412,767	0,03
413,229	0,03
413,691	0,03
414,153	0,03
414,615	0,03
415,077	0,03
415,539	0,03
416,002	0,03
416,464	0,03
416,926	0,03
417,389	0,02
417,851	0,02
418,313	0,02
418,776	0,02
419,238	0,02
419,701	0,02
420,163	0,02
420,626	0,02
421,089	0,02
421,551	0,02
422,014	0,01
422,477	0,01
422,94	0,01
423,402	0,01
423,865	0,01
424,328	0,01
424,791	0,01
425,254	0,01
425,717	0,01
426,18	0
426,643	0
427,106	0
427,569	0
428,032	0
428,495	0
428,959	0
429,422	-0
429,885	-0
430,349	-0
430,812	-0
431,275	-0
431,739	-0
432,202	-0
432,666	-0
433,129	-0
433,593	-0
434,056	-0
434,52	-0
434,984	-0
435,447	-0,01
435,911	-0,01
436,375	-0,01
436,839	-0,01
437,302	-0,01
437,766	-0,01
438,23	-0,01
438,694	-0,01
439,158	-0,01
439,622	-0,01
440,086	-0,01
440,55	-0,01
441,014	-0,01
441,479	-0,01
441,943	-0,01
442,407	-0,01
442,871	-0,01
443,335	-0,01
443,8	-0,01
444,264	-0,01
444,729	-0,01
445,193	-0,01
445,657	-0,01
446,122	-0,01
446,586	-0,01
447,051	-0,01
447,516	-0,01
447,98	-0,01
448,445	-0,01
448,91	-0,01
449,374	-0,01
449,839	-0,01
450,304	-0,01
450,769	-0,01
451,234	-0,01
451,699	-0,01
452,164	-0,01
452,629	-0,01
453,094	-0,01
453,559	-0,01
454,024	-0,01
454,489	-0,01
454,954	-0,01
455,419	-0,01
455,884	-0,01
456,35	-0,01
456,815	-0,01
457,28	-0,01
457,746	-0,01
458,211	-0,01
458,677	-0,01
459,142	-0,01
459,608	-0,01
460,073	-0,01
460,539	-0,01
461,004	-0,01
461,47	-0,01
461,936	-0,01
462,401	-0,01
462,867	-0,01
463,333	-0,01
463,799	-0,01
464,265	-0,01
464,731	-0,01
465,197	-0,01
465,663	-0,01
466,129	-0,01
466,595	-0,01
467,061	-0,01
467,527	-0,01
467,993	-0,01
468,459	-0,01
468,925	-0,01
469,392	-0,01
469,858	-0,01
470,324	-0,01
470,791	-0,01
471,257	-0,01
471,724	-0,01
472,19	-0,01
472,657	-0,01
473,123	-0,01
473,59	-0,01
474,056	-0,01
474,523	-0,01
474,99	-0,01
475,456	-0,01
475,923	-0,01
476,39	-0,01
476,857	-0,01
477,324	-0,01
477,791	-0,01
478,257	-0,01
478,724	-0,01
479,191	-0,01
479,659	-0,01
480,126	-0,01
480,593	-0,01
481,06	-0,01
481,527	-0,01
481,994	-0,01
482,462	-0,01
482,929	-0,01
483,396	-0,01
483,864	-0,01
484,331	-0,01
484,798	-0,01
485,266	-0,01
485,733	-0,01
486,201	-0,01
486,669	-0,01
487,136	-0,01
487,604	-0,01
488,072	-0,01
488,539	-0,01
489,007	-0,01
489,475	-0,01
489,943	-0,01
490,411	-0,01
490,879	-0,01
491,347	-0,01
491,815	-0,01
492,283	-0,01
492,751	-0,01
493,219	-0,01
493,687	-0,01
494,155	-0,01
494,623	-0,01
495,092	-0,01
495,56	-0,01
496,028	-0,01
496,496	-0,01
496,965	-0,01
497,433	-0,01
497,902	-0,01
498,37	-0,01
498,839	-0,01
499,307	-0,01
499,776	-0,01
500,245	-0,01
500,713	-0,01
501,182	-0,01
501,651	-0,01
502,12	-0,01
502,588	-0,01
503,057	-0,01
503,526	-0,01
503,995	-0,01
504,464	-0,01
504,933	-0,01
505,402	-0,01
505,871	-0,01
506,34	-0,01
506,81	-0,01
507,279	-0,01
507,748	-0
508,217	-0
508,687	-0
509,156	-0
509,625	-0
510,095	-0
510,564	-0
511,034	-0
511,503	-0
511,973	-0
512,442	-0
512,912	-0
513,382	-0
513,852	-0
514,321	-0
514,791	-0
515,261	-0
515,731	-0
516,201	-0
516,671	-0
517,141	-0
517,611	-0
518,081	-0
518,551	-0
519,021	-0
519,491	-0
519,961	-0
520,432	-0
520,902	-0
521,372	-0
521,842	0
522,313	0
522,783	0
523,254	0
523,724	0
524,195	0
524,665	0
525,136	0
525,607	0
526,077	0
526,548	0
527,019	0
527,49	0
527,96	0
528,431	0
528,902	0
529,373	0,01
529,844	0,01
530,315	0,01
530,786	0,01
531,257	0,01
531,729	0,01
532,2	0,01
532,671	0,01
533,142	0,01
533,613	0,01
534,085	0,01
534,556	0,01
535,028	0,01
535,499	0,01
535,971	0,01
536,442	0,01
536,914	0,01
537,385	0,01
537,857	0,01
538,328	0,01
538,8	0,01
539,272	0,01
539,744	0,01
540,216	0,02
540,687	0,02
541,159	0,02
541,631	0,02
542,103	0,02
542,575	0,02
543,047	0,02
543,519	0,02
543,992	0,02
544,464	0,02
544,936	0,02
545,408	0,02
545,88	0,02
546,353	0,02
546,825	0,02
547,297	0,02
547,77	0,02
548,242	0,03
548,715	0,03
549,187	0,03
549,66	0,03
550,133	0,03
550,605	0,03
551,078	0,03
551,551	0,03
552,023	0,03
552,496	0,03
552,969	0,03
553,442	0,04
553,915	0,04
554,388	0,04
554,861	0,04
555,334	0,04
555,807	0,04
556,28	0,04
556,753	0,04
557,227	0,04
557,7	0,04
558,173	0,05
558,646	0,05
559,12	0,05
559,593	0,05
560,067	0,05
560,54	0,05
561,014	0,05
561,487	0,05
561,961	0,06
562,434	0,06
562,908	0,06
563,382	0,06
563,855	0,06
564,329	0,06
564,803	0,06
565,277	0,07
565,751	0,07
566,225	0,07
566,699	0,07
567,173	0,07
567,647	0,07
568,121	0,07
568,595	0,08
569,069	0,08
569,543	0,08
570,018	0,08
570,492	0,08
570,966	0,08
571,44	0,09
571,915	0,09
572,389	0,09
572,864	0,09
573,338	0,09
573,813	0,09
574,287	0,1
574,762	0,1
575,237	0,1
575,711	0,1
576,186	0,1
576,661	0,1
577,136	0,11
577,611	0,11
578,086	0,11
578,561	0,11
579,036	0,11
579,511	0,11
579,986	0,11
580,461	0,12
580,936	0,12
581,411	0,12
581,886	0,12
582,362	0,12
582,837	0,12
583,312	0,12
583,788	0,13
584,263	0,13
584,738	0,13
585,214	0,13
585,689	0,13
586,165	0,13
586,641	0,13
587,116	0,14
587,592	0,14
588,068	0,14
588,543	0,14
589,019	0,14
589,495	0,14
589,971	0,14
590,447	0,15
590,923	0,15
591,399	0,15
591,875	0,15
592,351	0,15
592,827	0,15
593,303	0,16
593,78	0,16
594,256	0,16
594,732	0,16
595,208	0,16
595,685	0,17
596,161	0,17
596,638	0,17
597,114	0,17
597,591	0,17
598,067	0,18
598,544	0,18
599,02	0,18
599,497	0,18
599,974	0,19
600,451	0,19
600,927	0,19
601,404	0,2
601,881	0,2
602,358	0,2
602,835	0,21
603,312	0,21
603,789	0,21
604,266	0,22
604,743	0,22
605,22	0,22
605,698	0,23
606,175	0,23
606,652	0,24
607,13	0,24
607,607	0,24
608,084	0,25
608,562	0,25
609,039	0,26
609,517	0,26
609,994	0,27
610,472	0,27
610,95	0,28
611,427	0,28
611,905	0,29
612,383	0,29
612,861	0,3
613,338	0,31
613,816	0,31
614,294	0,32
614,772	0,32
615,25	0,33
615,728	0,33
616,206	0,34
616,684	0,34
617,163	0,35
617,641	0,35
618,119	0,36
618,597	0,36
619,076	0,37
619,554	0,38
620,032	0,38
620,511	0,38
620,989	0,39
621,468	0,39
621,946	0,4
622,425	0,4
622,904	0,41
623,382	0,41
623,861	0,41
624,34	0,42
624,819	0,42
625,298	0,42
625,776	0,43
626,255	0,43
626,734	0,43
627,213	0,43
627,692	0,43
628,172	0,43
628,651	0,43
629,13	0,43
629,609	0,43
630,088	0,43
630,568	0,43
631,047	0,43
631,526	0,43
632,006	0,43
632,485	0,43
632,965	0,42
633,444	0,42
633,924	0,42
634,404	0,41
634,883	0,41
635,363	0,41
635,843	0,4
636,323	0,39
636,802	0,39
637,282	0,38
637,762	0,38
638,242	0,37
638,722	0,37
639,202	0,36
639,682	0,35
640,162	0,35
640,643	0,34
641,123	0,33
641,603	0,32
642,083	0,32
642,564	0,31
643,044	0,3
643,524	0,29
644,005	0,28
644,485	0,28
644,966	0,27
645,446	0,26
645,927	0,25
646,408	0,25
646,888	0,24
647,369	0,23
647,85	0,22
648,331	0,21
648,812	0,21
649,293	0,2
649,773	0,19
650,254	0,19
650,736	0,18
651,217	0,17
651,698	0,16
652,179	0,16
652,66	0,15
653,141	0,15
653,623	0,14
654,104	0,13
654,585	0,13
655,067	0,12
655,548	0,12
656,03	0,11
656,511	0,11
656,993	0,1
657,474	0,1
657,956	0,09
658,438	0,09
658,919	0,08
659,401	0,08
659,883	0,07
660,365	0,07
660,847	0,07
661,329	0,06
661,811	0,06
662,293	0,06
662,775	0,05
663,257	0,05
663,739	0,05
664,221	0,05
664,703	0,04
665,186	0,04
665,668	0,04
666,15	0,04
666,633	0,03
667,115	0,03
667,598	0,03
668,08	0,03
668,563	0,03
669,046	0,02
669,528	0,02
670,011	0,02
670,494	0,02
670,976	0,02
671,459	0,02
671,942	0,01
672,425	0,01
672,908	0,01
673,391	0,01
673,874	0,01
674,357	0,01
674,84	0,01
675,323	0,01
675,807	0,01
676,29	0
676,773	0
677,256	0
677,74	0
678,223	0
678,707	0
679,19	0
679,674	0
680,157	-0
680,641	-0
681,125	-0
681,608	-0
682,092	-0
682,576	-0
683,06	-0
683,544	-0
684,028	-0
684,512	-0,01
684,996	-0,01
685,48	-0,01
685,964	-0,01
686,448	-0,01
686,932	-0,01
687,416	-0,01
687,9	-0,01
688,385	-0,01
688,869	-0,01
689,354	-0,01
689,838	-0,01
690,322	-0,01
690,807	-0,01
691,292	-0,01
691,776	-0,01
692,261	-0,01
692,745	-0,01
693,23	-0,01
693,715	-0,01
694,2	-0,01
694,685	-0,01
695,17	-0,01
695,655	-0,01
696,14	-0,01
696,625	-0,01
697,11	-0,01
697,595	-0,01
698,08	-0,01
698,565	-0,01
699,05	-0,01
699,536	-0,01
700,021	-0,01
700,506	-0,01
700,992	-0,01
701,477	-0,01
701,963	-0,01
702,448	-0,01
702,934	-0,01
703,42	-0,01
703,905	-0,01
704,391	-0,01
704,877	-0,01
705,363	-0,01
705,848	-0,01
706,334	-0,01
706,82	-0,01
707,306	-0,01
707,792	-0,01
708,278	-0,01
708,764	-0,01
709,251	-0,01
709,737	-0,01
710,223	-0,01
710,709	-0,01
711,196	-0,01
711,682	-0,01
712,168	-0,01
712,655	-0,01
713,141	-0,01
713,628	-0,01
714,114	-0,01
714,601	-0,01
715,088	-0,01
715,574	-0,01
716,061	-0,01
716,548	-0,01
717,035	-0,01
717,522	-0,01
718,009	-0,01
718,496	-0,01
718,983	-0,01
719,47	-0,01
719,957	-0,01
720,444	-0,01
720,931	-0,01
721,418	-0,01
721,906	-0,01
722,393	-0,01
722,88	-0,01
723,368	-0,01
723,855	-0,01
724,343	-0,01
724,83	-0,01
725,318	-0,01
725,806	-0,01
726,293	-0,01
726,781	-0,01
727,269	-0,01
727,757	-0,01
728,244	-0,01
728,732	-0,01
729,22	-0,01
729,708	-0,01
730,196	-0,01
730,684	-0,01
731,172	-0,01
731,661	-0,01
732,149	-0,01
732,637	-0,01
733,125	-0,01
733,614	-0,01
734,102	-0,01
734,591	-0,01
735,079	-0,01
735,568	-0,01
736,056	-0,01
736,545	-0,01
737,033	-0,01
737,522	-0,01
738,011	-0,01
738,499	-0,01
738,988	-0,01
739,477	-0,01
739,966	-0,01
740,455	-0,01
740,944	-0,01
741,433	-0,01
741,922	-0,01
742,411	-0,01
742,9	-0,01
743,39	-0,01
743,879	-0,01
744,368	-0,01
744,858	-0,01
745,347	-0,01
745,836	-0,01
746,326	-0,01
746,815	-0,01
747,305	-0,01
747,795	-0,01
748,284	-0,01
748,774	-0,01
749,264	-0,01
749,754	-0,01
750,243	-0,01
750,733	-0,01
751,223	-0,01
751,713	-0,01
752,203	-0,01
752,693	-0,01
753,183	-0,01
753,674	-0,01
754,164	-0,01
754,654	-0,01
755,144	-0,01
755,635	-0,01
756,125	-0,01
756,615	-0,01
757,106	-0,01
757,596	-0,01
758,087	-0,01
758,578	-0,01
759,068	-0,01
759,559	-0,01
760,05	-0,01
760,54	-0,01
761,031	-0,01
761,522	-0,01
762,013	-0,01
762,504	-0,01
762,995	-0,01
763,486	-0,01
763,977	-0,01
764,468	-0,01
764,959	-0,01
765,451	-0,01
765,942	-0,01
766,433	-0,01
766,925	-0,01
767,416	-0,01
767,907	-0,01
768,399	-0,01
768,89	-0,01
769,382	-0,01
769,874	-0,01
770,365	-0,01
770,857	-0,01
771,349	-0,01
771,841	-0,01
772,333	-0,01
772,824	-0,01
773,316	-0,01
773,808	-0,01
774,3	-0,01
774,792	-0,01
775,285	-0,01
775,777	-0,01
776,269	-0,01
776,761	-0,01
777,254	-0,01
777,746	-0,01
778,238	-0,01
778,731	-0,01
779,223	-0,01
779,716	-0,01
780,208	-0,01
780,701	-0,01
781,194	-0,01
781,686	-0,01
782,179	-0,01
782,672	-0,01
783,165	-0,01
783,658	-0,01
784,151	-0,01
784,644	-0,01
785,137	-0,01
785,63	-0,01
786,123	-0,01
786,616	-0,01
787,109	-0,01
787,603	-0,01
788,096	-0,01
788,589	-0,01
789,083	-0,01
789,576	-0,01
790,07	-0,01
790,563	-0,01
791,057	-0,01
791,55	-0,01
792,044	-0,01
792,538	-0,01
793,032	-0,01
793,525	-0,01
794,019	-0,01
794,513	-0,01
795,007	-0,01
795,501	-0,01
795,995	-0,01
796,489	-0,01
796,983	-0,01
797,478	-0,01
797,972	-0,01
798,466	-0,01
798,96	-0,01
799,455	-0,01
799,949	-0,01
800,444	-0,01
800,938	-0,01
801,433	-0,01
801,927	-0,01
802,422	-0,01
802,917	-0,01
803,411	-0,01
803,906	-0,01
804,401	-0,01
804,896	-0,01
805,391	-0,01
805,886	-0,01
806,381	-0,01
806,876	-0,01
807,371	-0,01
807,866	-0,01
808,361	-0,01
808,856	-0,01
809,352	-0,01
809,847	-0,01
810,342	-0,01
810,838	-0,01
811,333	-0,01
811,829	-0,01
812,324	-0,01
812,82	-0,01
813,316	-0,01
813,811	-0,01
814,307	-0,01
814,803	-0,01
815,299	-0,01
815,795	-0,01
816,291	-0,01
816,787	-0,01
817,283	-0,01
817,779	-0,01
818,275	-0,01
818,771	-0,01
819,267	-0,01
819,764	-0,01
820,26	-0,01
820,756	-0,01
821,253	-0,01
821,749	-0,01
822,246	-0,01
822,742	-0,01
