Data from Chemiepractica_Absorbance__34__11-46-33-183.txt Node

Date: Mon Dec 09 11:46:33 CET 2024
User: r0948668
Spectrometer: USB4F07138
Trigger mode: 4
Integration Time (sec): 6,000000E-3
Scans to average: 20
Electric dark correction enabled: true
Nonlinearity correction enabled: false
Boxcar width: 5
XAxis mode: Wavelengths
Number of Pixels in Spectrum: 3648
>>>>>Begin Spectral Data<<<<<
176,779	-0
176,999	-0
177,218	-0
177,438	-1,07499
177,658	0,00874
177,878	0,43715
178,097	0,24061
178,317	0,1797
178,537	0,10934
178,757	0,18344
178,976	0,05481
179,196	0,39577
179,416	0,11772
179,635	0,32352
179,855	0,18214
180,075	0,07426
180,294	0,03741
180,514	0,01092
180,734	0,0407
180,953	0,05652
181,173	0,03859
181,392	0,02134
181,612	0,02059
181,832	0,03372
182,051	0,02641
182,271	0,01628
182,49	0,00607
182,71	0,00737
182,929	0,01849
183,149	0,01155
183,368	0,01707
183,588	0,01468
183,807	0,03038
184,027	0,03654
184,246	0,03769
184,466	0,03956
184,685	0,04471
184,905	0,05004
185,124	0,05221
185,344	0,04844
185,563	0,04553
185,782	0,04061
186,002	0,0509
186,221	0,04416
186,44	0,04654
186,66	0,04038
186,879	0,05704
187,099	0,05311
187,318	0,05504
187,537	0,05297
187,756	0,06552
187,976	0,06221
188,195	0,0796
188,414	0,07177
188,634	0,07896
188,853	0,07238
189,072	0,07414
189,291	0,04841
189,511	0,06313
189,73	0,05885
189,949	0,06906
190,168	0,06266
190,387	0,07767
190,607	0,05237
190,826	0,04787
191,045	0,03372
191,264	0,03272
191,483	0,01531
191,702	0,03133
191,921	0,02046
192,141	0,0204
192,36	-0,0003
192,579	-0,00042
192,798	-0,007
193,017	-0,00516
193,236	-0,00547
193,455	0,00254
193,674	0,00693
193,893	0,01569
194,112	0,01392
194,331	0,01769
194,55	0,0241
194,769	0,02902
194,988	0,02631
195,207	0,03049
195,426	0,02936
195,645	0,03304
195,864	0,02547
196,083	0,02045
196,302	0,01232
196,521	0,00577
196,739	-0,00223
196,958	0,00005
197,177	0,00255
197,396	0,01079
197,615	0,01341
197,834	0,01164
198,053	0,01467
198,271	0,01104
198,49	0,01847
198,709	0,03494
198,928	0,04146
199,147	0,04258
199,365	0,04659
199,584	0,05477
199,803	0,03911
200,022	0,04558
200,24	0,03817
200,459	0,03077
200,678	0,03296
200,897	0,02538
201,115	0,01994
201,334	0,01871
201,553	0,0159
201,771	-0,00131
201,99	-0,01961
202,209	-0,00519
202,427	-0,01894
202,646	-0,0096
202,864	-0,00482
203,083	-0,01013
203,302	0,00312
203,52	0,01288
203,739	0,00961
203,957	0,01137
204,176	0,02117
204,394	0,03551
204,613	0,04106
204,831	0,05914
205,05	0,06223
205,268	0,06183
205,487	0,06989
205,705	0,04882
205,924	0,04942
206,142	0,05391
206,361	0,05907
206,579	0,05414
206,798	0,05223
207,016	0,04098
207,234	0,02368
207,453	0,04005
207,671	0,04167
207,89	0,04455
208,108	0,05802
208,326	0,04735
208,545	0,04584
208,763	0,042
208,981	0,04523
209,2	0,0269
209,418	0,02858
209,636	0,0298
209,855	0,01018
210,073	-0,00096
210,291	-0,00928
210,509	-0,01726
210,728	-0,02833
210,946	-0,02784
211,164	-0,02216
211,382	-0,023
211,6	0,00524
211,819	0,0101
212,037	0,01656
212,255	0,01416
212,473	0,02205
212,691	0,019
212,909	0,02334
213,128	0,02855
213,346	0,03235
213,564	0,03013
213,782	0,03346
214	0,03438
214,218	0,03608
214,436	0,03156
214,654	0,03925
214,872	0,04189
215,09	0,0339
215,308	0,04584
215,526	0,05649
215,744	0,04408
215,962	0,04278
216,18	0,03881
216,398	0,03543
216,616	0,02496
216,834	0,02563
217,052	0,01775
217,27	0,00874
217,488	0,02852
217,706	0,02076
217,924	0,01231
218,142	0,01865
218,36	0,02301
218,578	0,03503
218,795	0,03758
219,013	0,04254
219,231	0,03637
219,449	0,04315
219,667	0,04803
219,885	0,051
220,102	0,05993
220,32	0,06734
220,538	0,08543
220,756	0,07337
220,973	0,06776
221,191	0,05649
221,409	0,05388
221,627	0,06268
221,844	0,0534
222,062	0,05483
222,28	0,05131
222,497	0,03409
222,715	0,03348
222,933	0,0103
223,15	0,01438
223,368	0,01899
223,586	0,02293
223,803	0,02906
224,021	0,02461
224,239	0,02999
224,456	0,02757
224,674	0,02143
224,891	0,03115
225,109	0,029
225,326	0,03424
225,544	0,03471
225,762	0,01813
225,979	0,0184
226,197	0,01402
226,414	0,01726
226,632	0,01431
226,849	0,0152
227,066	0,03093
227,284	0,0332
227,501	0,03947
227,719	0,04775
227,936	0,04519
228,154	0,05139
228,371	0,04815
228,588	0,05572
228,806	0,06247
229,023	0,07344
229,241	0,08155
229,458	0,07527
229,675	0,06785
229,893	0,04877
230,11	0,05158
230,327	0,04623
230,545	0,04954
230,762	0,04848
230,979	0,04365
231,196	0,03787
231,414	0,03709
231,631	0,02202
231,848	0,0134
232,065	0,01668
232,283	0,03545
232,5	0,02176
232,717	0,02399
232,934	0,02055
233,151	0,02443
233,368	0,02216
233,586	0,0223
233,803	0,02209
234,02	0,03413
234,237	0,04472
234,454	0,0567
234,671	0,06925
234,888	0,07876
235,105	0,09541
235,322	0,1075
235,54	0,09883
235,757	0,11028
235,974	0,10944
236,191	0,10967
236,408	0,10709
236,625	0,09807
236,842	0,08045
237,059	0,05927
237,276	0,05479
237,493	0,04778
237,71	0,03423
237,926	0,03549
238,143	0,02283
238,36	0,01824
238,577	0,00301
238,794	-0,00125
239,011	0,0016
239,228	0,01302
239,445	0,01406
239,662	0,02258
239,878	0,02744
240,095	0,03347
240,312	0,04141
240,529	0,04274
240,746	0,04059
240,963	0,04013
241,179	0,05289
241,396	0,06178
241,613	0,05374
241,83	0,05708
242,046	0,04696
242,263	0,04575
242,48	0,04474
242,697	0,04636
242,913	0,05945
243,13	0,05948
243,347	0,07749
243,563	0,06622
243,78	0,05952
243,997	0,06482
244,213	0,07131
244,43	0,08059
244,646	0,08842
244,863	0,09007
245,08	0,0921
245,296	0,08393
245,513	0,08686
245,729	0,08276
245,946	0,09066
246,162	0,08576
246,379	0,07416
246,595	0,06545
246,812	0,06179
247,028	0,05088
247,245	0,04933
247,461	0,02503
247,678	0,01933
247,894	0,02195
248,111	0,01373
248,327	0,01674
248,544	0,01519
248,76	0,01616
248,976	0,02881
249,193	0,02547
249,409	0,01877
249,626	0,01271
249,842	0,0291
250,058	0,03177
250,275	0,02767
250,491	0,03114
250,707	0,02206
250,924	0,02666
251,14	0,03461
251,356	0,02496
251,572	0,02068
251,789	0,03234
252,005	0,03691
252,221	0,03222
252,437	0,02429
252,654	0,02155
252,87	0,01258
253,086	0,03283
253,302	0,03539
253,518	0,03517
253,735	0,03269
253,951	0,03803
254,167	0,02587
254,383	0,01471
254,599	0,01027
254,815	0,01554
255,031	0,01473
255,247	0,02144
255,463	0,00165
255,68	0,00672
255,896	0,00695
256,112	0,01135
256,328	0,01226
256,544	0,02526
256,76	0,04547
256,976	0,05187
257,192	0,05984
257,408	0,07072
257,624	0,07562
257,84	0,08003
258,056	0,07674
258,272	0,07117
258,487	0,05692
258,703	0,05419
258,919	0,05659
259,135	0,04315
259,351	0,03998
259,567	0,03407
259,783	0,02731
259,999	0,02089
260,215	0,02026
260,43	0,00919
260,646	0,01514
260,862	0,02573
261,078	0,01506
261,294	-0,002
261,509	0,00895
261,725	0,01662
261,941	0,01914
262,157	0,02322
262,372	0,0205
262,588	0,0151
262,804	0,03635
263,019	0,03451
263,235	0,02862
263,451	0,0415
263,667	0,05145
263,882	0,05317
264,098	0,05587
264,313	0,05529
264,529	0,04343
264,745	0,04532
264,96	0,04091
265,176	0,02416
265,391	0,02196
265,607	0,03688
265,823	0,03108
266,038	0,03225
266,254	0,02987
266,469	0,02701
266,685	0,02815
266,9	0,03604
267,116	0,0497
267,331	0,0622
267,547	0,06309
267,762	0,07555
267,978	0,06953
268,193	0,07424
268,408	0,08165
268,624	0,08603
268,839	0,08138
269,055	0,07623
269,27	0,07898
269,485	0,07586
269,701	0,0764
269,916	0,07981
270,132	0,06905
270,347	0,0665
270,562	0,06655
270,777	0,06559
270,993	0,0597
271,208	0,0678
271,423	0,07646
271,639	0,08121
271,854	0,06382
272,069	0,05727
272,284	0,06198
272,5	0,0561
272,715	0,0546
272,93	0,04674
273,145	0,03091
273,36	0,03724
273,576	0,03272
273,791	0,03207
274,006	0,01336
274,221	0,023
274,436	0,02567
274,651	0,01884
274,866	0,02757
275,081	0,03273
275,296	0,03749
275,512	0,04516
275,727	0,03741
275,942	0,03373
276,157	0,01515
276,372	0,03421
276,587	0,03778
276,802	0,04175
277,017	0,04394
277,232	0,04177
277,447	0,0412
277,662	0,04212
277,877	0,03664
278,092	0,04593
278,306	0,04391
278,521	0,06038
278,736	0,05258
278,951	0,04945
279,166	0,04123
279,381	0,03593
279,596	0,0332
279,811	0,03199
280,025	0,02287
280,24	0,02036
280,455	0,02047
280,67	0,02086
280,885	0,02433
281,099	0,02747
281,314	0,02029
281,529	0,02107
281,744	0,03089
281,959	0,03266
282,173	0,03481
282,388	0,04754
282,603	0,04935
282,817	0,04423
283,032	0,04781
283,247	0,04211
283,461	0,03863
283,676	0,03129
283,891	0,03184
284,105	0,0313
284,32	0,03615
284,535	0,03481
284,749	0,03733
284,964	0,0535
285,178	0,0431
285,393	0,04754
285,607	0,04522
285,822	0,05663
286,036	0,07956
286,251	0,08306
286,465	0,0872
286,68	0,09033
286,894	0,08717
287,109	0,08956
287,323	0,07169
287,538	0,08577
287,752	0,08277
287,967	0,08705
288,181	0,07631
288,396	0,07568
288,61	0,07578
288,824	0,07026
289,039	0,06598
289,253	0,06827
289,467	0,05858
289,682	0,05819
289,896	0,05113
290,11	0,04972
290,325	0,04813
290,539	0,03724
290,753	0,03466
290,968	0,02995
291,182	0,02858
291,396	0,02506
291,61	0,03004
291,825	0,03467
292,039	0,04067
292,253	0,04212
292,467	0,04671
292,681	0,03887
292,896	0,04638
293,11	0,03748
293,324	0,04854
293,538	0,05174
293,752	0,05473
293,966	0,04723
294,18	0,04165
294,394	0,03804
294,608	0,03951
294,823	0,03483
295,037	0,0336
295,251	0,03493
295,465	0,03201
295,679	0,01989
295,893	0,01788
296,107	0,00952
296,321	0,01444
296,535	0,0135
296,749	0,01584
296,963	0,00898
297,177	0,01034
297,391	0,01927
297,604	0,02042
297,818	0,02714
298,032	0,01863
298,246	0,01329
298,46	0,02538
298,674	0,02297
298,888	0,02348
299,102	0,02962
299,315	0,0438
299,529	0,05294
299,743	0,05624
299,957	0,05021
300,171	0,04748
300,385	0,06595
300,598	0,07162
300,812	0,07182
301,026	0,06678
301,24	0,076
301,453	0,06758
301,667	0,06111
301,881	0,0534
302,094	0,04609
302,308	0,05092
302,522	0,05769
302,735	0,05343
302,949	0,05199
303,163	0,04265
303,376	0,04422
303,59	0,04079
303,803	0,03811
304,017	0,0391
304,231	0,04889
304,444	0,05752
304,658	0,05071
304,871	0,04953
305,085	0,04397
305,298	0,03932
305,512	0,03558
305,725	0,04219
305,939	0,04063
306,152	0,03613
306,366	0,02193
306,579	0,01033
306,793	0,00844
307,006	0,02083
307,22	0,01724
307,433	0,01411
307,646	0,01825
307,86	0,02148
308,073	0,01601
308,286	0,00946
308,5	0,01993
308,713	0,02601
308,926	0,03669
309,14	0,03276
309,353	0,02111
309,566	0,01832
309,78	0,02059
309,993	0,02029
310,206	0,02397
310,419	0,02369
310,633	0,03013
310,846	0,03564
311,059	0,04161
311,272	0,03593
311,486	0,03623
311,699	0,03609
311,912	0,03375
312,125	0,03218
312,338	0,0324
312,551	0,03341
312,764	0,03941
312,978	0,04581
313,191	0,04489
313,404	0,03863
313,617	0,03063
313,83	0,04357
314,043	0,05937
314,256	0,05349
314,469	0,05049
314,682	0,05204
314,895	0,0507
315,108	0,05291
315,321	0,04305
315,534	0,04052
315,747	0,05157
315,96	0,05882
316,173	0,04849
316,386	0,04251
316,599	0,05436
316,812	0,0587
317,025	0,06402
317,237	0,05749
317,45	0,0485
317,663	0,0531
317,876	0,05256
318,089	0,04849
318,302	0,03901
318,515	0,03757
318,727	0,03497
318,94	0,04118
319,153	0,03639
319,366	0,02818
319,578	0,02893
319,791	0,04419
320,004	0,03099
320,217	0,03218
320,429	0,02543
320,642	0,03566
320,855	0,03755
321,067	0,03263
321,28	0,0243
321,493	0,03155
321,705	0,02749
321,918	0,03035
322,131	0,01749
322,343	0,02234
322,556	0,02197
322,768	0,02581
322,981	0,01109
323,194	0,00541
323,406	0,00563
323,619	0,00748
323,831	0,00933
324,044	0,01662
324,256	0,02004
324,469	0,02106
324,681	0,02371
324,894	0,02002
325,106	0,02113
325,319	0,02231
325,531	0,03258
325,743	0,02834
325,956	0,02654
326,168	0,02594
326,381	0,02146
326,593	0,00967
326,805	0,01427
327,018	0,01208
327,23	0,01018
327,442	0,01773
327,655	0,01591
327,867	0,01094
328,079	0,01639
328,292	0,0173
328,504	0,02111
328,716	0,01526
328,928	0,02902
329,141	0,02564
329,353	0,02885
329,565	0,03688
329,777	0,02534
329,99	0,03691
330,202	0,0412
330,414	0,03116
330,626	0,03643
330,838	0,02955
331,05	0,03217
331,263	0,02996
331,475	0,02989
331,687	0,0286
331,899	0,02833
332,111	0,03361
332,323	0,02659
332,535	0,02293
332,747	0,02977
332,959	0,02361
333,171	0,02298
333,383	0,02513
333,595	0,0261
333,807	0,0221
334,019	0,02461
334,231	0,01595
334,443	0,00941
334,655	0,01827
334,867	0,01063
335,079	0,01609
335,291	0,00995
335,503	0,01681
335,714	0,012
335,926	0,01415
336,138	0,01859
336,35	0,01679
336,562	0,01902
336,774	0,02493
336,986	0,02679
337,197	0,03542
337,409	0,02948
337,621	0,02937
337,833	0,02138
338,044	0,03034
338,256	0,02912
338,468	0,0277
338,68	0,02678
338,891	0,02172
339,103	0,01478
339,315	0,00464
339,526	-0,0002
339,738	0,001
339,95	0,01223
340,161	0,02313
340,373	0,00176
340,585	-0,0021
340,796	-0,00212
341,008	-0,00297
341,219	0,00623
341,431	0,00425
341,642	0,00897
341,854	0,00807
342,065	0,01113
342,277	0,00325
342,489	-0,00223
342,7	0,0156
342,912	0,01681
343,123	0,01294
343,334	0,01492
343,546	0,00048
343,757	0,0031
343,969	-0,00495
344,18	-0,00592
344,392	-0,00645
344,603	0,01109
344,814	0,01405
345,026	0,01732
345,237	0,01981
345,448	0,02349
345,66	0,02372
345,871	0,0349
346,082	0,04393
346,294	0,05562
346,505	0,06115
346,716	0,06985
346,927	0,05823
347,139	0,05684
347,35	0,05383
347,561	0,05057
347,772	0,05142
347,984	0,05039
348,195	0,05097
348,406	0,04303
348,617	0,03871
348,828	0,03755
349,039	0,02974
349,251	0,03014
349,462	0,02376
349,673	0,01688
349,884	0,01755
350,095	0,0181
350,306	0,01516
350,517	0,0249
350,728	0,02579
350,939	0,03026
351,15	0,02885
351,361	0,02895
351,572	0,03026
351,783	0,0319
351,994	0,03843
352,205	0,03409
352,416	0,03943
352,627	0,04937
352,838	0,0385
353,049	0,05172
353,26	0,04643
353,471	0,04581
353,682	0,05009
353,893	0,04891
354,103	0,04639
354,314	0,04183
354,525	0,04489
354,736	0,04007
354,947	0,03536
355,157	0,03928
355,368	0,0323
355,579	0,02512
355,79	0,02588
356,001	0,01466
356,211	0,01768
356,422	0,01001
356,633	0,00816
356,843	0,0108
357,054	0,00618
357,265	0,00951
357,476	0,00743
357,686	0,00003
357,897	0,00984
358,107	0,00862
358,318	0,01831
358,529	0,01689
358,739	0,03191
358,95	0,03622
359,16	0,03228
359,371	0,03276
359,582	0,02754
359,792	0,02774
360,003	0,02805
360,213	0,02032
360,424	0,02274
360,634	0,02512
360,845	0,0185
361,055	0,01859
361,266	0,02274
361,476	0,02703
361,686	0,02701
361,897	0,02566
362,107	0,02731
362,318	0,03551
362,528	0,04217
362,738	0,04061
362,949	0,03464
363,159	0,03874
363,369	0,03096
363,58	0,02474
363,79	0,02506
364	0,02843
364,211	0,02728
364,421	0,02256
364,631	0,0248
364,842	0,022
365,052	0,01846
365,262	0,01816
365,472	0,01975
365,682	0,03026
365,893	0,03129
366,103	0,03058
366,313	0,03369
366,523	0,04167
366,733	0,03943
366,943	0,03181
367,154	0,03356
367,364	0,04248
367,574	0,0441
367,784	0,04597
367,994	0,04135
368,204	0,04378
368,414	0,04377
368,624	0,03982
368,834	0,03677
369,044	0,04425
369,254	0,04592
369,464	0,04763
369,674	0,04526
369,884	0,04093
370,094	0,03889
370,304	0,03352
370,514	0,03067
370,724	0,03036
370,934	0,02791
371,144	0,02179
371,353	0,01755
371,563	0,01977
371,773	0,01704
371,983	0,01387
372,193	0,01631
372,403	0,01679
372,612	0,01977
372,822	0,02045
373,032	0,0163
373,242	0,02153
373,452	0,02513
373,661	0,02834
373,871	0,02654
374,081	0,02939
374,29	0,03103
374,5	0,02929
374,71	0,0268
374,92	0,02654
375,129	0,02652
375,339	0,02869
375,549	0,02475
375,758	0,02706
375,968	0,02472
376,177	0,02279
376,387	0,01762
376,597	0,01804
376,806	0,02183
377,016	0,02499
377,225	0,02326
377,435	0,02368
377,644	0,02279
377,854	0,02588
378,063	0,02615
378,273	0,02647
378,482	0,02529
378,692	0,02983
378,901	0,03029
379,111	0,02815
379,32	0,02951
379,529	0,02879
379,739	0,03161
379,948	0,03304
380,158	0,0323
380,367	0,03315
380,576	0,03516
380,786	0,03342
380,995	0,03348
381,204	0,03791
381,414	0,04027
381,623	0,03663
381,832	0,04088
382,041	0,04003
382,251	0,03893
382,46	0,03973
382,669	0,0348
382,878	0,03287
383,088	0,03549
383,297	0,03458
383,506	0,02916
383,715	0,026
383,924	0,02533
384,133	0,02261
384,342	0,02246
384,552	0,02366
384,761	0,02353
384,97	0,02603
385,179	0,02803
385,388	0,02925
385,597	0,02796
385,806	0,03018
386,015	0,02931
386,224	0,03041
386,433	0,03097
386,642	0,02582
386,851	0,02368
387,06	0,02325
387,269	0,02414
387,478	0,02396
387,687	0,02599
387,896	0,02486
388,105	0,02222
388,314	0,02075
388,523	0,02022
388,731	0,02367
388,94	0,02704
389,149	0,0285
389,358	0,02894
389,567	0,03318
389,776	0,03061
389,984	0,02692
390,193	0,03085
390,402	0,02854
390,611	0,0332
390,819	0,03276
391,028	0,03018
391,237	0,03237
391,446	0,03103
391,654	0,02596
391,863	0,02159
392,072	0,02238
392,28	0,02261
392,489	0,01887
392,698	0,02045
392,906	0,01734
393,115	0,01826
393,324	0,01886
393,532	0,01393
393,741	0,01345
393,949	0,01621
394,158	0,01401
394,366	0,01324
394,575	0,01235
394,783	0,01352
394,992	0,01374
395,2	0,01551
395,409	0,01425
395,617	0,01286
395,826	0,01566
396,034	0,01584
396,243	0,01665
396,451	0,01792
396,66	0,0209
396,868	0,02001
397,076	0,0175
397,285	0,01606
397,493	0,01395
397,701	0,01516
397,91	0,0129
398,118	0,01283
398,326	0,0128
398,535	0,0111
398,743	0,0121
398,951	0,00882
399,159	0,01265
399,368	0,01662
399,576	0,01871
399,784	0,02044
399,992	0,01976
400,201	0,02249
400,409	0,02148
400,617	0,02407
400,825	0,02558
401,033	0,0242
401,241	0,02529
401,45	0,02658
401,658	0,02641
401,866	0,02719
402,074	0,02588
402,282	0,02543
402,49	0,02467
402,698	0,02523
402,906	0,02294
403,114	0,02083
403,322	0,02147
403,53	0,02066
403,738	0,01589
403,946	0,01362
404,154	0,01064
404,362	0,01199
404,57	0,01129
404,778	0,01006
404,986	0,01091
405,194	0,01166
405,402	0,0132
405,609	0,01174
405,817	0,00868
406,025	0,01282
406,233	0,01506
406,441	0,01702
406,649	0,01691
406,856	0,01817
407,064	0,01991
407,272	0,01881
407,48	0,01883
407,687	0,01848
407,895	0,02091
408,103	0,02433
408,311	0,02204
408,518	0,02151
408,726	0,02132
408,934	0,02078
409,141	0,02009
409,349	0,01704
409,557	0,01928
409,764	0,01776
409,972	0,0186
410,18	0,01567
410,387	0,01577
410,595	0,01474
410,802	0,01196
411,01	0,01165
411,217	0,01165
411,425	0,01375
411,632	0,01518
411,84	0,01329
412,047	0,01392
412,255	0,01225
412,462	0,01345
412,67	0,01316
412,877	0,0142
413,085	0,01645
413,292	0,01688
413,499	0,01708
413,707	0,01495
413,914	0,01614
414,122	0,01553
414,329	0,01541
414,536	0,0175
414,744	0,0158
414,951	0,01475
415,158	0,01416
415,366	0,01299
415,573	0,01262
415,78	0,01239
415,987	0,01193
416,195	0,012
416,402	0,01025
416,609	0,01254
416,816	0,01044
417,023	0,01297
417,231	0,01338
417,438	0,01464
417,645	0,01371
417,852	0,0125
418,059	0,01361
418,266	0,01222
418,473	0,01047
418,68	0,01274
418,888	0,01048
419,095	0,01061
419,302	0,01082
419,509	0,00971
419,716	0,00905
419,923	0,00917
420,13	0,00949
420,337	0,01066
420,544	0,01254
420,751	0,01261
420,958	0,013
421,165	0,01459
421,371	0,01298
421,578	0,01138
421,785	0,01224
421,992	0,01141
422,199	0,01212
422,406	0,01309
422,613	0,01218
422,82	0,01204
423,026	0,01296
423,233	0,01226
423,44	0,00966
423,647	0,01099
423,854	0,01121
424,06	0,01105
424,267	0,01124
424,474	0,01156
424,681	0,0106
424,887	0,00934
425,094	0,00878
425,301	0,00903
425,507	0,00812
425,714	0,00816
425,921	0,00845
426,127	0,00783
426,334	0,00767
426,54	0,00874
426,747	0,00956
426,954	0,0082
427,16	0,00801
427,367	0,00781
427,573	0,00778
427,78	0,00867
427,986	0,00893
428,193	0,00922
428,399	0,01002
428,606	0,01059
428,812	0,01066
429,019	0,00946
429,225	0,01108
429,432	0,01203
429,638	0,0136
429,845	0,01204
430,051	0,0126
430,257	0,01257
430,464	0,0123
430,67	0,01179
430,876	0,01185
431,083	0,01162
431,289	0,01195
431,495	0,01189
431,702	0,01231
431,908	0,00992
432,114	0,01003
432,32	0,01013
432,527	0,01074
432,733	0,01019
432,939	0,01078
433,145	0,01072
433,351	0,011
433,558	0,01112
433,764	0,01174
433,97	0,00963
434,176	0,01078
434,382	0,01299
434,588	0,0126
434,794	0,01196
435,001	0,01279
435,207	0,01188
435,413	0,0113
435,619	0,01161
435,825	0,01071
436,031	0,0101
436,237	0,01174
436,443	0,01331
436,649	0,01251
436,855	0,01251
437,061	0,01354
437,267	0,01354
437,473	0,01495
437,679	0,01559
437,884	0,01439
438,09	0,01437
438,296	0,01324
438,502	0,0114
438,708	0,00987
438,914	0,00896
439,12	0,00828
439,325	0,00815
439,531	0,00804
439,737	0,0073
439,943	0,00691
440,149	0,00645
440,354	0,00687
440,56	0,00709
440,766	0,00709
440,972	0,00733
441,177	0,00883
441,383	0,00985
441,589	0,01027
441,794	0,00993
442	0,00989
442,206	0,00989
442,411	0,01056
442,617	0,01031
442,822	0,01167
443,028	0,01226
443,234	0,0131
443,439	0,01248
443,645	0,01208
443,85	0,01158
444,056	0,01204
444,261	0,01265
444,467	0,01291
444,672	0,01346
444,878	0,01452
445,083	0,01473
445,289	0,01503
445,494	0,01425
445,699	0,01382
445,905	0,01403
446,11	0,01428
446,316	0,01449
446,521	0,01441
446,726	0,01535
446,932	0,01475
447,137	0,0142
447,342	0,01322
447,548	0,0136
447,753	0,01348
447,958	0,01388
448,164	0,01395
448,369	0,01368
448,574	0,01293
448,779	0,01261
448,984	0,01123
449,19	0,01121
449,395	0,01112
449,6	0,01139
449,805	0,01134
450,01	0,01196
450,215	0,0117
450,421	0,01252
450,626	0,01244
450,831	0,01278
451,036	0,01247
451,241	0,01409
451,446	0,01382
451,651	0,01461
451,856	0,01483
452,061	0,01526
452,266	0,01537
452,471	0,01616
452,676	0,0158
452,881	0,01559
453,086	0,01677
453,291	0,01737
453,496	0,01587
453,701	0,01662
453,906	0,01639
454,111	0,01638
454,316	0,01652
454,52	0,0164
454,725	0,01578
454,93	0,01578
455,135	0,01669
455,34	0,01569
455,545	0,01587
455,749	0,01697
455,954	0,01639
456,159	0,01653
456,364	0,01705
456,568	0,01694
456,773	0,01724
456,978	0,0176
457,182	0,01815
457,387	0,01801
457,592	0,01826
457,796	0,01776
458,001	0,01799
458,206	0,01779
458,41	0,01776
458,615	0,01761
458,82	0,01762
459,024	0,01768
459,229	0,01781
459,433	0,01742
459,638	0,01744
459,842	0,01807
460,047	0,01853
460,251	0,01823
460,456	0,01887
460,66	0,01882
460,865	0,01865
461,069	0,01928
461,274	0,01985
461,478	0,01978
461,682	0,01973
461,887	0,02006
462,091	0,02016
462,296	0,02096
462,5	0,02139
462,704	0,02239
462,909	0,02232
463,113	0,02214
463,317	0,02169
463,522	0,02185
463,726	0,02218
463,93	0,02206
464,134	0,02227
464,339	0,0218
464,543	0,02122
464,747	0,02093
464,951	0,02026
465,155	0,02078
465,36	0,02199
465,564	0,02254
465,768	0,02204
465,972	0,0226
466,176	0,02292
466,38	0,02315
466,584	0,02371
466,788	0,02396
466,993	0,02419
467,197	0,02455
467,401	0,02457
467,605	0,02412
467,809	0,02393
468,013	0,02513
468,217	0,025
468,421	0,02515
468,625	0,02464
468,829	0,02454
469,033	0,02464
469,236	0,02501
469,44	0,0246
469,644	0,02488
469,848	0,0251
470,052	0,02569
470,256	0,02475
470,46	0,02492
470,664	0,02559
470,867	0,02613
471,071	0,02629
471,275	0,02681
471,479	0,02686
471,683	0,0276
471,886	0,02784
472,09	0,02792
472,294	0,02776
472,497	0,02819
472,701	0,02814
472,905	0,02816
473,109	0,02874
473,312	0,02888
473,516	0,02923
473,719	0,02929
473,923	0,02925
474,127	0,02936
474,33	0,0296
474,534	0,02988
474,737	0,03028
474,941	0,03076
475,145	0,03018
475,348	0,03008
475,552	0,03058
475,755	0,03031
475,959	0,03095
476,162	0,03171
476,366	0,03212
476,569	0,0323
476,772	0,03264
476,976	0,03275
477,179	0,03302
477,383	0,03362
477,586	0,0339
477,789	0,03423
477,993	0,03474
478,196	0,03471
478,399	0,03464
478,603	0,0349
478,806	0,03536
479,009	0,03533
479,213	0,03514
479,416	0,03482
479,619	0,03543
479,822	0,03585
480,026	0,03624
480,229	0,0364
480,432	0,03713
480,635	0,0374
480,838	0,03775
481,041	0,03755
481,245	0,03775
481,448	0,03826
481,651	0,03892
481,854	0,03887
482,057	0,03878
482,26	0,03895
482,463	0,03908
482,666	0,03899
482,869	0,03937
483,072	0,03941
483,275	0,03982
483,478	0,04009
483,681	0,04057
483,884	0,04075
484,087	0,04127
484,29	0,04184
484,493	0,04195
484,696	0,04266
484,899	0,04329
485,102	0,04352
485,305	0,04367
485,508	0,04453
485,71	0,04527
485,913	0,04546
486,116	0,04572
486,319	0,04608
486,522	0,0462
486,725	0,04638
486,927	0,04667
487,13	0,04665
487,333	0,04695
487,536	0,04753
487,738	0,04784
487,941	0,04789
488,144	0,04851
488,346	0,04908
488,549	0,04915
488,752	0,04958
488,954	0,0505
489,157	0,05068
489,359	0,05104
489,562	0,05131
489,765	0,05149
489,967	0,05158
490,17	0,05208
490,372	0,05213
490,575	0,05225
490,777	0,0529
490,98	0,05322
491,182	0,05294
491,385	0,05312
491,587	0,0533
491,79	0,05378
491,992	0,05407
492,195	0,05423
492,397	0,05425
492,599	0,05477
492,802	0,05524
493,004	0,05557
493,207	0,05586
493,409	0,05661
493,611	0,0572
493,814	0,05773
494,016	0,05795
494,218	0,05843
494,42	0,05887
494,623	0,05973
494,825	0,06021
495,027	0,06039
495,229	0,06079
495,432	0,06114
495,634	0,06142
495,836	0,06169
496,038	0,06183
496,24	0,06236
496,442	0,06269
496,645	0,06311
496,847	0,06338
497,049	0,06352
497,251	0,06431
497,453	0,06472
497,655	0,06535
497,857	0,06573
498,059	0,06635
498,261	0,06674
498,463	0,0673
498,665	0,06784
498,867	0,06839
499,069	0,0687
499,271	0,06914
499,473	0,06963
499,675	0,06996
499,877	0,07037
500,079	0,07096
500,281	0,07122
500,482	0,0719
500,684	0,07224
500,886	0,07277
501,088	0,07321
501,29	0,0738
501,492	0,07429
501,693	0,07488
501,895	0,07556
502,097	0,076
502,299	0,07643
502,5	0,07676
502,702	0,07735
502,904	0,07813
503,106	0,07848
503,307	0,07892
503,509	0,0794
503,711	0,0801
503,912	0,08024
504,114	0,08049
504,315	0,08118
504,517	0,08181
504,719	0,08242
504,92	0,08288
505,122	0,08323
505,323	0,08394
505,525	0,08458
505,726	0,08483
505,928	0,08513
506,129	0,08567
506,331	0,08621
506,532	0,08675
506,734	0,08705
506,935	0,08765
507,137	0,08827
507,338	0,08877
507,539	0,08922
507,741	0,08971
507,942	0,09035
508,143	0,091
508,345	0,09156
508,546	0,09197
508,747	0,09248
508,949	0,09325
509,15	0,09366
509,351	0,09398
509,553	0,09422
509,754	0,09479
509,955	0,09528
510,156	0,09607
510,357	0,09642
510,559	0,09719
510,76	0,09784
510,961	0,0985
511,162	0,09883
511,363	0,09962
511,564	0,10014
511,766	0,1011
511,967	0,10162
512,168	0,10235
512,369	0,10299
512,57	0,10381
512,771	0,10454
512,972	0,10532
513,173	0,1059
513,374	0,1065
513,575	0,10701
513,776	0,10794
513,977	0,10845
514,178	0,1092
514,379	0,10993
514,58	0,1106
514,781	0,11155
514,981	0,11214
515,182	0,11256
515,383	0,11309
515,584	0,11377
515,785	0,11463
515,986	0,11522
516,187	0,11593
516,387	0,11649
516,588	0,11715
516,789	0,11758
516,99	0,11813
517,19	0,11852
517,391	0,11949
517,592	0,12016
517,793	0,12086
517,993	0,12146
518,194	0,12212
518,395	0,12278
518,595	0,12351
518,796	0,12399
518,996	0,12466
519,197	0,12534
519,398	0,12616
519,598	0,12683
519,799	0,12754
519,999	0,12841
520,2	0,12912
520,4	0,12961
520,601	0,13031
520,801	0,13103
521,002	0,13178
521,202	0,13271
521,403	0,13313
521,603	0,13396
521,804	0,13445
522,004	0,13521
522,204	0,13591
522,405	0,13643
522,605	0,13736
522,806	0,13804
523,006	0,13863
523,206	0,13933
523,407	0,14003
523,607	0,14074
523,807	0,1413
524,007	0,14213
524,208	0,14275
524,408	0,14318
524,608	0,14394
524,808	0,14454
525,009	0,14529
525,209	0,14584
525,409	0,14637
525,609	0,14689
525,809	0,14775
526,009	0,1483
526,209	0,14888
526,41	0,14943
526,61	0,15038
526,81	0,15102
527,01	0,15182
527,21	0,15237
527,41	0,15325
527,61	0,15398
527,81	0,15457
528,01	0,15512
528,21	0,15571
528,41	0,15621
528,61	0,15691
528,81	0,15745
529,01	0,15811
529,21	0,1587
529,41	0,15918
529,609	0,15962
529,809	0,1602
530,009	0,16088
530,209	0,16167
530,409	0,16228
530,609	0,16332
530,808	0,16385
531,008	0,16436
531,208	0,16488
531,408	0,16549
531,608	0,16621
531,807	0,16668
532,007	0,16742
532,207	0,1679
532,406	0,16832
532,606	0,16896
532,806	0,16937
533,005	0,16996
533,205	0,17045
533,405	0,17093
533,604	0,17157
533,804	0,17212
534,003	0,17294
534,203	0,17337
534,403	0,17379
534,602	0,17435
534,802	0,17495
535,001	0,17545
535,201	0,17598
535,4	0,17652
535,6	0,17718
535,799	0,17751
535,998	0,17798
536,198	0,17844
536,397	0,17891
536,597	0,17956
536,796	0,18006
536,995	0,18055
537,195	0,18103
537,394	0,18163
537,594	0,18233
537,793	0,18267
537,992	0,18329
538,191	0,18378
538,391	0,18421
538,59	0,18482
538,789	0,18518
538,988	0,18538
539,188	0,18566
539,387	0,18614
539,586	0,18669
539,785	0,18685
539,984	0,18761
540,184	0,18787
540,383	0,18839
540,582	0,18873
540,781	0,18916
540,98	0,18987
541,179	0,19067
541,378	0,19126
541,577	0,1914
541,776	0,19162
541,975	0,19213
542,174	0,19221
542,373	0,19261
542,572	0,19281
542,771	0,19331
542,97	0,19372
543,169	0,19398
543,368	0,19406
543,567	0,19448
543,766	0,19497
543,965	0,1952
544,164	0,19547
544,362	0,19603
544,561	0,19642
544,76	0,19701
544,959	0,19744
545,158	0,19767
545,356	0,19781
545,555	0,19823
545,754	0,1985
545,953	0,19899
546,151	0,19925
546,35	0,19951
546,549	0,19964
546,748	0,19995
546,946	0,20002
547,145	0,20029
547,344	0,2005
547,542	0,20082
547,741	0,20113
547,939	0,20124
548,138	0,20129
548,337	0,2018
548,535	0,2021
548,734	0,2024
548,932	0,20242
549,131	0,20276
549,329	0,20294
549,528	0,20325
549,726	0,20339
549,925	0,20341
550,123	0,20362
550,322	0,20389
550,52	0,20403
550,718	0,20424
550,917	0,20436
551,115	0,20446
551,313	0,20456
551,512	0,2047
551,71	0,20494
551,908	0,20528
552,107	0,2057
552,305	0,20602
552,503	0,2062
552,702	0,20636
552,9	0,20664
553,098	0,20684
553,296	0,20731
553,495	0,20762
553,693	0,20782
553,891	0,20803
554,089	0,20823
554,287	0,20837
554,485	0,20855
554,683	0,20861
554,882	0,20871
555,08	0,20908
555,278	0,20943
555,476	0,20962
555,674	0,20972
555,872	0,20997
556,07	0,20993
556,268	0,21019
556,466	0,21035
556,664	0,21073
556,862	0,21119
557,06	0,21164
557,258	0,21175
557,456	0,21188
557,654	0,21204
557,851	0,21243
558,049	0,21261
558,247	0,21303
558,445	0,21334
558,643	0,21356
558,841	0,21361
559,039	0,21381
559,236	0,21404
559,434	0,21441
559,632	0,21473
559,83	0,21514
560,027	0,21521
560,225	0,21569
560,423	0,21598
560,62	0,21628
560,818	0,21654
561,016	0,21699
561,213	0,21737
561,411	0,21765
561,609	0,21787
561,806	0,21828
562,004	0,21855
562,202	0,21902
562,399	0,21908
562,597	0,2195
562,794	0,21978
562,992	0,22006
563,189	0,22034
563,387	0,22063
563,584	0,22113
563,782	0,22152
563,979	0,22177
564,177	0,22216
564,374	0,22261
564,571	0,22328
564,769	0,22363
564,966	0,22389
565,164	0,22458
565,361	0,22498
565,558	0,22534
565,756	0,22567
565,953	0,22605
566,15	0,22645
566,347	0,22694
566,545	0,22745
566,742	0,22788
566,939	0,22835
567,136	0,22879
567,334	0,22911
567,531	0,22956
567,728	0,23011
567,925	0,23057
568,122	0,23097
568,319	0,23156
568,517	0,23207
568,714	0,23243
568,911	0,23286
569,108	0,2334
569,305	0,23403
569,502	0,23462
569,699	0,23513
569,896	0,23557
570,093	0,23612
570,29	0,23686
570,487	0,2375
570,684	0,23821
570,881	0,23894
571,078	0,23945
571,275	0,23998
571,472	0,24069
571,669	0,24111
571,866	0,24184
572,062	0,24261
572,259	0,24323
572,456	0,24372
572,653	0,24428
572,85	0,24471
573,047	0,24515
573,243	0,24587
573,44	0,24626
573,637	0,24676
573,834	0,24756
574,03	0,24821
574,227	0,24863
574,424	0,24918
574,62	0,24979
574,817	0,25042
575,014	0,25127
575,21	0,25188
575,407	0,25237
575,604	0,25325
575,8	0,25404
575,997	0,25464
576,193	0,25531
576,39	0,25615
576,586	0,25685
576,783	0,25754
576,979	0,25818
577,176	0,25869
577,372	0,25936
577,569	0,26004
577,765	0,26067
577,962	0,26129
578,158	0,2621
578,355	0,26273
578,551	0,26335
578,747	0,26394
578,944	0,2646
579,14	0,26516
579,336	0,26587
579,533	0,26659
579,729	0,26731
579,925	0,26798
580,122	0,26858
580,318	0,26901
580,514	0,26959
580,71	0,27011
580,906	0,27087
581,103	0,27158
581,299	0,27224
581,495	0,27273
581,691	0,27326
581,887	0,27379
582,084	0,27446
582,28	0,27508
582,476	0,2757
582,672	0,27623
582,868	0,27678
583,064	0,27724
583,26	0,27759
583,456	0,27816
583,652	0,27859
583,848	0,27933
584,044	0,27977
584,24	0,28009
584,436	0,28061
584,632	0,28103
584,828	0,28153
585,024	0,2819
585,22	0,28237
585,416	0,28274
585,611	0,2831
585,807	0,28358
586,003	0,28382
586,199	0,28414
586,395	0,28458
586,591	0,28468
586,786	0,285
586,982	0,28512
587,178	0,28547
587,374	0,28547
587,569	0,28574
587,765	0,28586
587,961	0,28597
588,156	0,28611
588,352	0,2862
588,548	0,28629
588,743	0,28646
588,939	0,28638
589,135	0,28657
589,33	0,2866
589,526	0,28683
589,721	0,28684
589,917	0,28692
590,112	0,28685
590,308	0,28665
590,503	0,28673
590,699	0,28656
590,894	0,28636
591,09	0,28637
591,285	0,28599
591,481	0,28596
591,676	0,2857
591,872	0,2854
592,067	0,28506
592,262	0,28483
592,458	0,28463
592,653	0,28439
592,848	0,28404
593,044	0,28375
593,239	0,28331
593,434	0,28306
593,629	0,28257
593,825	0,28208
594,02	0,28169
594,215	0,28131
594,41	0,28075
594,606	0,28013
594,801	0,27938
594,996	0,27885
595,191	0,2783
595,386	0,2776
595,581	0,27692
595,777	0,27625
595,972	0,27544
596,167	0,27461
596,362	0,27362
596,557	0,27288
596,752	0,2722
596,947	0,27139
597,142	0,27039
597,337	0,26949
597,532	0,26882
597,727	0,26785
597,922	0,2669
598,117	0,26616
598,312	0,26531
598,507	0,26448
598,701	0,26347
598,896	0,26234
599,091	0,26133
599,286	0,26032
599,481	0,25905
599,676	0,25789
599,87	0,25684
600,065	0,25562
600,26	0,25448
600,455	0,25322
600,65	0,25195
600,844	0,25063
601,039	0,24944
601,234	0,24837
601,428	0,24729
601,623	0,24618
601,818	0,24484
602,012	0,24365
602,207	0,24235
602,402	0,24094
602,596	0,23951
602,791	0,23831
602,985	0,23715
603,18	0,23569
603,374	0,23412
603,569	0,23261
603,763	0,2312
603,958	0,22984
604,152	0,22839
604,347	0,2269
604,541	0,22542
604,736	0,22399
604,93	0,22244
605,125	0,2208
605,319	0,21934
605,513	0,21779
605,708	0,21631
605,902	0,21463
606,096	0,21297
606,291	0,21136
606,485	0,20983
606,679	0,20843
606,874	0,20688
607,068	0,20528
607,262	0,20384
607,456	0,20233
607,65	0,20077
607,845	0,19928
608,039	0,19792
608,233	0,1964
608,427	0,19474
608,621	0,19332
608,815	0,19165
609,01	0,19016
609,204	0,18865
609,398	0,18711
609,592	0,18545
609,786	0,18404
609,98	0,18249
610,174	0,18087
610,368	0,17929
610,562	0,17782
610,756	0,17608
610,95	0,17454
611,144	0,17295
611,338	0,17137
611,532	0,16962
611,726	0,16816
611,919	0,16661
612,113	0,16508
612,307	0,16345
612,501	0,16197
612,695	0,16034
612,889	0,15878
613,082	0,15718
613,276	0,15566
613,47	0,15434
613,664	0,15298
613,857	0,15125
614,051	0,14972
614,245	0,14814
614,439	0,14673
614,632	0,14539
614,826	0,14395
615,02	0,14243
615,213	0,14105
615,407	0,13959
615,6	0,13799
615,794	0,13647
615,988	0,13521
616,181	0,13373
616,375	0,13225
616,568	0,13086
616,762	0,12939
616,955	0,12809
617,149	0,12682
617,342	0,12538
617,536	0,12412
617,729	0,12281
617,923	0,12157
618,116	0,12024
618,309	0,11894
618,503	0,11764
618,696	0,11628
618,889	0,1148
619,083	0,11334
619,276	0,11197
619,469	0,11066
619,663	0,1093
619,856	0,10796
620,049	0,10664
620,242	0,10541
620,436	0,10414
620,629	0,10298
620,822	0,10184
621,015	0,10068
621,209	0,09969
621,402	0,09857
621,595	0,09748
621,788	0,09629
621,981	0,09509
622,174	0,09397
622,367	0,09276
622,56	0,09165
622,753	0,09055
622,946	0,08938
623,139	0,08831
623,332	0,08716
623,525	0,08593
623,718	0,0848
623,911	0,08378
624,104	0,08285
624,297	0,08175
624,49	0,08082
624,683	0,07986
624,876	0,07879
625,069	0,07784
625,262	0,07695
625,454	0,07591
625,647	0,07509
625,84	0,0741
626,033	0,07325
626,226	0,07233
626,418	0,07151
626,611	0,07058
626,804	0,06958
626,997	0,06862
627,189	0,06772
627,382	0,06676
627,575	0,06597
627,767	0,06516
627,96	0,06439
628,153	0,06349
628,345	0,0626
628,538	0,06174
628,731	0,06096
628,923	0,06017
629,116	0,05961
629,308	0,05876
629,501	0,05797
629,693	0,05728
629,886	0,05653
630,078	0,05578
630,271	0,05512
630,463	0,05434
630,656	0,05355
630,848	0,05283
631,04	0,0522
631,233	0,05143
631,425	0,05073
631,617	0,05006
631,81	0,0493
632,002	0,04861
632,194	0,04799
632,387	0,04737
632,579	0,04679
632,771	0,04624
632,964	0,0456
633,156	0,04485
633,348	0,04419
633,54	0,04364
633,732	0,04304
633,925	0,04257
634,117	0,04212
634,309	0,04151
634,501	0,04088
634,693	0,04027
634,885	0,03969
635,077	0,03915
635,269	0,03864
635,462	0,03818
635,654	0,0377
635,846	0,03732
636,038	0,03667
636,23	0,0361
636,422	0,03556
636,614	0,03499
636,806	0,03463
636,997	0,03425
637,189	0,0338
637,381	0,03337
637,573	0,03288
637,765	0,03245
637,957	0,03188
638,149	0,03151
638,341	0,03113
638,532	0,03073
638,724	0,03038
638,916	0,02996
639,108	0,02951
639,299	0,02922
639,491	0,02877
639,683	0,02849
639,875	0,02811
640,066	0,02779
640,258	0,02729
640,45	0,02687
640,641	0,0267
640,833	0,02633
641,025	0,02594
641,216	0,02552
641,408	0,02502
641,599	0,02479
641,791	0,02437
641,982	0,02398
642,174	0,02358
642,366	0,02339
642,557	0,02293
642,748	0,02235
642,94	0,02206
643,131	0,02166
643,323	0,02135
643,514	0,02102
643,706	0,02081
643,897	0,02052
644,088	0,02025
644,28	0,01999
644,471	0,01969
644,662	0,01955
644,854	0,01944
645,045	0,01916
645,236	0,01893
645,428	0,01869
645,619	0,01851
645,81	0,01819
646,001	0,01784
646,193	0,01762
646,384	0,0173
646,575	0,01704
646,766	0,01678
646,957	0,0164
647,148	0,01612
647,339	0,01593
647,531	0,0158
647,722	0,01556
647,913	0,01525
648,104	0,01507
648,295	0,01483
648,486	0,01462
648,677	0,01439
648,868	0,01423
649,059	0,01408
649,25	0,01386
649,441	0,01371
649,632	0,01335
649,823	0,01318
650,013	0,01303
650,204	0,01287
650,395	0,01261
650,586	0,01255
650,777	0,01242
650,968	0,01215
651,159	0,01205
651,349	0,0119
651,54	0,01162
651,731	0,01153
651,922	0,01143
652,112	0,01131
652,303	0,01116
652,494	0,01109
652,684	0,01093
652,875	0,0107
653,066	0,01057
653,256	0,01041
653,447	0,01028
653,638	0,01021
653,828	0,01
654,019	0,00983
654,209	0,00962
654,4	0,00945
654,59	0,00939
654,781	0,00935
654,972	0,00922
655,162	0,0092
655,352	0,009
655,543	0,00886
655,733	0,0087
655,924	0,00875
656,114	0,0086
656,305	0,00857
656,495	0,00849
656,685	0,00826
656,876	0,00806
657,066	0,00795
657,256	0,00784
657,447	0,00783
657,637	0,00776
657,827	0,00765
658,017	0,00755
658,208	0,0074
658,398	0,00717
658,588	0,00707
658,778	0,00704
658,968	0,00689
659,159	0,0068
659,349	0,00668
659,539	0,00655
659,729	0,00642
659,919	0,00642
660,109	0,00623
660,299	0,00627
660,489	0,00634
660,679	0,00623
660,869	0,00613
661,059	0,00607
661,249	0,00597
661,439	0,00589
661,629	0,00581
661,819	0,00578
662,009	0,00561
662,199	0,00553
662,389	0,00539
662,579	0,00516
662,769	0,00509
662,959	0,00502
663,149	0,00504
663,338	0,00504
663,528	0,00506
663,718	0,00496
663,908	0,00481
664,097	0,00474
664,287	0,00463
664,477	0,0046
664,667	0,00459
664,856	0,00457
665,046	0,00452
665,236	0,00443
665,425	0,00433
665,615	0,00414
665,805	0,00417
665,994	0,00421
666,184	0,0042
666,373	0,00419
666,563	0,00412
666,753	0,0041
666,942	0,00399
667,132	0,00385
667,321	0,00374
667,511	0,00376
667,7	0,00379
667,889	0,00365
668,079	0,00361
668,268	0,00357
668,458	0,00348
668,647	0,00347
668,836	0,00339
669,026	0,00335
669,215	0,0033
669,404	0,00337
669,594	0,00324
669,783	0,00311
669,972	0,00314
670,162	0,00307
670,351	0,00296
670,54	0,00287
670,729	0,00266
670,919	0,00263
671,108	0,0026
671,297	0,00263
671,486	0,00253
671,675	0,0025
671,864	0,00252
672,053	0,00245
672,243	0,00243
672,432	0,00242
672,621	0,00247
672,81	0,00248
672,999	0,00247
673,188	0,00245
673,377	0,00237
673,566	0,00235
673,755	0,00234
673,944	0,00222
674,133	0,0021
674,322	0,00209
674,51	0,00212
674,699	0,00206
674,888	0,00205
675,077	0,00199
675,266	0,00194
675,455	0,002
675,644	0,0019
675,832	0,00185
676,021	0,00186
676,21	0,00197
676,399	0,00182
676,587	0,00177
676,776	0,00181
676,965	0,00179
677,153	0,00178
677,342	0,00172
677,531	0,00164
677,719	0,00162
677,908	0,00166
678,097	0,00169
678,285	0,00158
678,474	0,00167
678,662	0,00165
678,851	0,00158
679,039	0,00156
679,228	0,00152
679,416	0,00162
679,605	0,00156
679,793	0,00161
679,982	0,00152
680,17	0,00144
680,359	0,00146
680,547	0,0014
680,736	0,00142
680,924	0,0015
681,112	0,0015
681,301	0,00153
681,489	0,00142
681,677	0,00147
681,866	0,00133
682,054	0,00123
682,242	0,0012
682,43	0,00115
682,619	0,00106
682,807	0,00098
682,995	0,00084
683,183	0,00082
683,371	0,0008
683,559	0,0008
683,748	0,00076
683,936	0,00085
684,124	0,00093
684,312	0,0009
684,5	0,00087
684,688	0,00101
684,876	0,00101
685,064	0,00099
685,252	0,001
685,44	0,00096
685,628	0,00092
685,816	0,00088
686,004	0,00082
686,192	0,00077
686,38	0,00075
686,568	0,00074
686,756	0,00055
686,944	0,00052
687,131	0,00054
687,319	0,00051
687,507	0,00051
687,695	0,00049
687,883	0,00047
688,07	0,00041
688,258	0,00046
688,446	0,0005
688,634	0,00063
688,821	0,00062
689,009	0,00058
689,197	0,00057
689,384	0,0005
689,572	0,00035
689,76	0,00036
689,947	0,00033
690,135	0,00042
690,323	0,00038
690,51	0,00034
690,698	0,00022
690,885	0,00032
691,073	0,00032
691,26	0,00027
691,448	0,00032
691,635	0,00034
691,823	0,00029
692,01	0,0003
692,197	0,00015
692,385	0,00018
692,572	0,00024
692,76	0,00022
692,947	0,00026
693,134	0,00042
693,322	0,00041
693,509	0,00034
693,696	0,00026
693,884	0,00028
694,071	0,00029
694,258	0,00039
694,445	0,00035
694,633	0,00023
694,82	0,00011
695,007	0,00005
695,194	-0,00003
695,381	0,00005
695,568	-0,00002
695,756	0,00006
695,943	-0,00003
696,13	-0,0001
696,317	-0,00009
696,504	-0,00012
696,691	-0,00012
696,878	0,00002
697,065	-0,00014
697,252	-0,00019
697,439	-0,00022
697,626	-0,00014
697,813	-0,00014
698	-0,00017
698,187	-0,00028
698,374	-0,00033
698,561	-0,0003
698,747	-0,00027
698,934	-0,00036
699,121	-0,00024
699,308	-0,00034
699,495	-0,00042
699,682	-0,00042
699,868	-0,00044
700,055	-0,00041
700,242	-0,00028
700,429	-0,00032
700,615	-0,00035
700,802	-0,00045
700,989	-0,00042
701,175	-0,00054
701,362	-0,00046
701,549	-0,00047
701,735	-0,00045
701,922	-0,00039
702,108	-0,00035
702,295	-0,00044
702,482	-0,00046
702,668	-0,00049
702,855	-0,00049
703,041	-0,00039
703,228	-0,00028
703,414	-0,00032
703,601	-0,00032
703,787	-0,00033
703,973	-0,00044
704,16	-0,0005
704,346	-0,00037
704,533	-0,00037
704,719	-0,00049
704,905	-0,00048
705,092	-0,00066
705,278	-0,00066
705,464	-0,0006
705,65	-0,00053
705,837	-0,0006
706,023	-0,00057
706,209	-0,00057
706,395	-0,00066
706,582	-0,00069
706,768	-0,00056
706,954	-0,00052
707,14	-0,00046
707,326	-0,0005
707,512	-0,00061
707,698	-0,00066
707,885	-0,00058
708,071	-0,00062
708,257	-0,00068
708,443	-0,00068
708,629	-0,00064
708,815	-0,00071
709,001	-0,00076
709,187	-0,00085
709,373	-0,00088
709,559	-0,00088
709,745	-0,00096
709,93	-0,00112
710,116	-0,00116
710,302	-0,00104
710,488	-0,00098
710,674	-0,00096
710,86	-0,00094
711,046	-0,00084
711,231	-0,0008
711,417	-0,00075
711,603	-0,00075
711,789	-0,00074
711,974	-0,00068
712,16	-0,00065
712,346	-0,00066
712,532	-0,00069
712,717	-0,00073
712,903	-0,00074
713,089	-0,00077
713,274	-0,00075
713,46	-0,00084
713,645	-0,00083
713,831	-0,00082
714,016	-0,00081
714,202	-0,0008
714,388	-0,0007
714,573	-0,0008
714,759	-0,00075
714,944	-0,0008
715,129	-0,0008
715,315	-0,00082
715,5	-0,00078
715,686	-0,00077
715,871	-0,00074
716,057	-0,00068
716,242	-0,00061
716,427	-0,00074
716,613	-0,00069
716,798	-0,00081
716,983	-0,00073
717,168	-0,00077
717,354	-0,00068
717,539	-0,00059
717,724	-0,00068
717,909	-0,0006
718,095	-0,00055
718,28	-0,00067
718,465	-0,00067
718,65	-0,0006
718,835	-0,00065
719,02	-0,00069
719,206	-0,00068
719,391	-0,00069
719,576	-0,00094
719,761	-0,00095
719,946	-0,00105
720,131	-0,00115
720,316	-0,00113
720,501	-0,00109
720,686	-0,00115
720,871	-0,00099
721,056	-0,00097
721,241	-0,00107
721,426	-0,00115
721,61	-0,00103
721,795	-0,00099
721,98	-0,001
722,165	-0,00098
722,35	-0,00076
722,535	-0,00082
722,719	-0,00084
722,904	-0,00087
723,089	-0,00091
723,274	-0,00088
723,458	-0,00091
723,643	-0,00084
723,828	-0,00087
724,013	-0,00086
724,197	-0,00093
724,382	-0,00113
724,567	-0,00115
724,751	-0,00121
724,936	-0,00128
725,12	-0,00127
725,305	-0,00118
725,489	-0,00115
725,674	-0,00119
725,859	-0,0011
726,043	-0,00113
726,228	-0,00107
726,412	-0,00116
726,596	-0,00111
726,781	-0,00093
726,965	-0,00079
727,15	-0,00069
727,334	-0,00079
727,518	-0,00085
727,703	-0,00078
727,887	-0,00083
728,072	-0,00079
728,256	-0,00084
728,44	-0,00072
728,624	-0,00079
728,809	-0,00102
728,993	-0,0011
729,177	-0,00113
729,361	-0,00098
729,546	-0,00092
729,73	-0,00096
729,914	-0,00113
730,098	-0,00111
730,282	-0,00108
730,466	-0,00119
730,65	-0,00106
730,834	-0,00104
731,019	-0,00108
731,203	-0,0011
731,387	-0,00107
731,571	-0,00119
731,755	-0,00119
731,939	-0,00112
732,123	-0,00122
732,306	-0,00117
732,49	-0,00115
732,674	-0,00117
732,858	-0,00114
733,042	-0,00116
733,226	-0,00115
733,41	-0,0012
733,594	-0,0011
733,778	-0,00116
733,961	-0,00101
734,145	-0,00098
734,329	-0,00096
734,513	-0,00095
734,696	-0,00099
734,88	-0,00087
735,064	-0,00084
735,247	-0,00101
735,431	-0,00107
735,615	-0,00114
735,798	-0,00106
735,982	-0,00107
736,166	-0,00093
736,349	-0,00103
736,533	-0,00105
736,716	-0,00108
736,9	-0,00118
737,083	-0,00126
737,267	-0,00122
737,45	-0,00126
737,634	-0,00125
737,817	-0,00134
738,001	-0,00137
738,184	-0,00155
738,368	-0,0015
738,551	-0,0015
738,734	-0,00141
738,918	-0,00137
739,101	-0,00119
739,284	-0,00133
739,468	-0,00137
739,651	-0,00128
739,834	-0,00126
740,018	-0,0014
740,201	-0,00137
740,384	-0,00138
740,567	-0,00128
740,75	-0,00139
740,934	-0,00148
741,117	-0,00166
741,3	-0,00144
741,483	-0,0014
741,666	-0,0015
741,849	-0,00147
742,032	-0,00132
742,215	-0,0014
742,399	-0,00142
742,582	-0,00152
742,765	-0,00152
742,948	-0,00146
743,131	-0,00135
743,314	-0,00143
743,496	-0,0015
743,679	-0,00143
743,862	-0,0014
744,045	-0,00141
744,228	-0,00134
744,411	-0,00136
744,594	-0,00133
744,777	-0,00128
744,959	-0,00122
745,142	-0,00123
745,325	-0,00117
745,508	-0,00116
745,691	-0,00109
745,873	-0,0012
746,056	-0,00123
746,239	-0,00132
746,421	-0,00123
746,604	-0,0013
746,787	-0,00132
746,969	-0,00134
747,152	-0,00148
747,335	-0,00158
747,517	-0,00154
747,7	-0,00152
747,882	-0,00144
748,065	-0,00159
748,247	-0,0015
748,43	-0,00171
748,612	-0,00169
748,795	-0,0017
748,977	-0,00179
749,16	-0,00178
749,342	-0,00167
749,524	-0,00169
749,707	-0,00183
749,889	-0,00189
750,072	-0,0018
750,254	-0,00188
750,436	-0,00175
750,619	-0,00171
750,801	-0,00173
750,983	-0,00175
751,165	-0,00176
751,348	-0,00184
751,53	-0,00196
751,712	-0,00198
751,894	-0,00198
752,076	-0,00184
752,259	-0,00178
752,441	-0,00186
752,623	-0,00203
752,805	-0,00209
752,987	-0,00215
753,169	-0,00211
753,351	-0,00214
753,533	-0,00199
753,715	-0,00198
753,897	-0,00206
754,079	-0,00213
754,261	-0,00215
754,443	-0,00212
754,625	-0,00199
754,807	-0,00195
754,989	-0,00188
755,171	-0,00177
755,353	-0,00172
755,534	-0,00179
755,716	-0,00183
755,898	-0,00184
756,08	-0,00188
756,262	-0,00195
756,443	-0,00203
756,625	-0,00199
756,807	-0,00203
756,989	-0,00209
757,17	-0,00221
757,352	-0,00225
757,534	-0,00218
757,715	-0,00217
757,897	-0,0021
758,079	-0,00213
758,26	-0,00198
758,442	-0,00188
758,623	-0,00189
758,805	-0,0018
758,987	-0,0017
759,168	-0,00174
759,35	-0,00176
759,531	-0,00174
759,713	-0,00173
759,894	-0,00183
760,075	-0,00184
760,257	-0,00201
760,438	-0,00197
760,62	-0,00201
760,801	-0,00208
760,982	-0,00214
761,164	-0,00214
761,345	-0,00209
761,526	-0,00212
761,708	-0,00213
761,889	-0,00209
762,07	-0,00208
762,251	-0,00188
762,433	-0,00186
762,614	-0,00187
762,795	-0,0019
762,976	-0,00182
763,157	-0,00169
763,338	-0,00172
763,52	-0,00178
763,701	-0,00184
763,882	-0,00181
764,063	-0,00172
764,244	-0,00186
764,425	-0,00196
764,606	-0,00203
764,787	-0,002
764,968	-0,00208
765,149	-0,00218
765,33	-0,00222
765,511	-0,00217
765,692	-0,00216
765,873	-0,0022
766,053	-0,00235
766,234	-0,00235
766,415	-0,00227
766,596	-0,00233
766,777	-0,00237
766,958	-0,00243
767,138	-0,00238
767,319	-0,00236
767,5	-0,00244
767,681	-0,00253
767,861	-0,00242
768,042	-0,00241
768,223	-0,00235
768,403	-0,0025
768,584	-0,00236
768,765	-0,00229
768,945	-0,00227
769,126	-0,00234
769,307	-0,00231
769,487	-0,00223
769,668	-0,00214
769,848	-0,00226
770,029	-0,00221
770,209	-0,00236
770,39	-0,00234
770,57	-0,00238
770,751	-0,00249
770,931	-0,0025
771,111	-0,00257
771,292	-0,00253
771,472	-0,00257
771,653	-0,00244
771,833	-0,00241
772,013	-0,0024
772,194	-0,00228
772,374	-0,00224
772,554	-0,00219
772,734	-0,00209
772,915	-0,002
773,095	-0,00192
773,275	-0,00199
773,455	-0,00199
773,635	-0,00218
773,816	-0,00215
773,996	-0,00207
774,176	-0,00206
774,356	-0,00213
774,536	-0,00213
774,716	-0,00226
774,896	-0,00231
775,076	-0,0023
775,256	-0,00222
775,436	-0,0021
775,616	-0,00198
775,796	-0,00191
775,976	-0,00197
776,156	-0,00196
776,336	-0,0019
776,516	-0,00201
776,696	-0,00207
776,876	-0,00201
777,056	-0,00207
777,235	-0,00219
777,415	-0,00228
777,595	-0,00247
777,775	-0,00252
777,955	-0,00259
778,134	-0,00267
778,314	-0,0026
778,494	-0,00254
778,674	-0,00239
778,853	-0,00249
779,033	-0,00249
779,213	-0,00245
779,392	-0,00253
779,572	-0,00244
779,751	-0,00261
779,931	-0,00259
780,111	-0,00258
780,29	-0,00272
780,47	-0,00279
780,649	-0,00284
780,829	-0,0028
781,008	-0,00274
781,188	-0,00269
781,367	-0,00257
781,546	-0,0025
781,726	-0,00242
781,905	-0,00242
782,085	-0,00241
782,264	-0,00231
782,443	-0,00226
782,623	-0,00227
782,802	-0,00227
782,981	-0,00235
783,161	-0,00238
783,34	-0,00242
783,519	-0,00238
783,698	-0,00238
783,878	-0,00237
784,057	-0,00236
784,236	-0,00233
784,415	-0,00223
784,594	-0,0021
784,773	-0,00215
784,952	-0,00208
785,132	-0,00216
785,311	-0,00208
785,49	-0,00225
785,669	-0,00223
785,848	-0,0022
786,027	-0,00225
786,206	-0,00223
786,385	-0,00237
786,564	-0,00252
786,743	-0,00251
786,922	-0,00259
787,1	-0,00254
787,279	-0,00274
787,458	-0,00261
787,637	-0,00257
787,816	-0,00248
787,995	-0,00251
788,174	-0,00257
788,352	-0,00249
788,531	-0,00238
788,71	-0,00223
788,889	-0,00222
789,067	-0,00228
789,246	-0,00217
789,425	-0,00218
789,603	-0,00223
789,782	-0,00234
789,961	-0,00237
790,139	-0,00232
790,318	-0,00238
790,496	-0,00237
790,675	-0,00236
790,853	-0,00226
791,032	-0,00231
791,211	-0,00236
791,389	-0,00237
791,568	-0,0022
791,746	-0,00221
791,924	-0,00212
792,103	-0,00213
792,281	-0,00227
792,46	-0,00235
792,638	-0,00242
792,816	-0,00247
792,995	-0,00238
793,173	-0,00245
793,351	-0,00249
793,53	-0,00253
793,708	-0,00245
793,886	-0,0025
794,064	-0,00253
794,243	-0,00228
794,421	-0,00227
794,599	-0,00237
794,777	-0,0024
794,955	-0,00248
795,133	-0,00237
795,312	-0,00243
795,49	-0,00258
795,668	-0,0026
795,846	-0,00257
796,024	-0,00254
796,202	-0,00263
796,38	-0,00266
796,558	-0,00278
796,736	-0,00278
796,914	-0,00274
797,092	-0,00285
797,27	-0,00278
797,448	-0,00273
797,626	-0,00282
797,803	-0,00284
797,981	-0,00291
798,159	-0,00293
798,337	-0,00302
798,515	-0,00289
798,693	-0,00286
798,87	-0,00293
799,048	-0,00289
799,226	-0,00286
799,404	-0,00296
799,581	-0,00307
799,759	-0,00317
799,937	-0,00319
800,114	-0,00322
800,292	-0,00318
800,469	-0,00307
800,647	-0,00323
800,825	-0,00316
801,002	-0,00325
801,18	-0,00343
801,357	-0,00335
801,535	-0,00326
801,712	-0,00327
801,89	-0,00311
802,067	-0,00314
802,245	-0,0031
802,422	-0,0033
802,6	-0,00325
802,777	-0,00324
802,954	-0,00313
803,132	-0,00303
803,309	-0,00303
803,486	-0,00308
803,664	-0,00287
803,841	-0,00297
804,018	-0,00288
804,195	-0,00283
804,373	-0,00283
804,55	-0,00275
804,727	-0,00278
804,904	-0,00276
805,081	-0,00265
805,259	-0,00274
805,436	-0,0028
805,613	-0,00303
805,79	-0,00306
805,967	-0,00314
806,144	-0,00334
806,321	-0,00323
806,498	-0,00318
806,675	-0,00308
806,852	-0,00318
807,029	-0,00317
807,206	-0,0031
807,383	-0,00289
807,56	-0,00275
807,737	-0,00285
807,914	-0,00276
808,091	-0,00258
808,268	-0,00246
808,444	-0,00255
808,621	-0,00266
808,798	-0,00275
808,975	-0,00278
809,152	-0,00293
809,328	-0,00309
809,505	-0,0031
809,682	-0,00299
809,858	-0,00307
810,035	-0,00316
810,212	-0,00346
810,388	-0,00346
810,565	-0,00318
810,742	-0,00309
810,918	-0,00327
811,095	-0,00313
811,271	-0,003
811,448	-0,00303
811,625	-0,00316
811,801	-0,00322
811,978	-0,00318
812,154	-0,00308
812,33	-0,00302
812,507	-0,00325
812,683	-0,00314
812,86	-0,00302
813,036	-0,00298
813,212	-0,00297
813,389	-0,00305
813,565	-0,00306
813,741	-0,00284
813,918	-0,00276
814,094	-0,00257
814,27	-0,00268
814,447	-0,00265
814,623	-0,00264
814,799	-0,00276
814,975	-0,00279
815,151	-0,00285
815,328	-0,00285
815,504	-0,00262
815,68	-0,00286
815,856	-0,00293
816,032	-0,00301
816,208	-0,00291
816,384	-0,00305
816,56	-0,00316
816,736	-0,00319
816,912	-0,00316
817,088	-0,00317
817,264	-0,00316
817,44	-0,00336
817,616	-0,00328
817,792	-0,0033
817,968	-0,00334
818,144	-0,00328
818,32	-0,00316
818,495	-0,00313
818,671	-0,00312
818,847	-0,00317
819,023	-0,00308
819,199	-0,00298
819,374	-0,00284
819,55	-0,00281
819,726	-0,00287
819,902	-0,00285
820,077	-0,00292
820,253	-0,0029
820,429	-0,00295
820,604	-0,00279
820,78	-0,00279
820,956	-0,00293
821,131	-0,00298
821,307	-0,00301
821,482	-0,003
821,658	-0,00282
821,833	-0,00298
822,009	-0,00315
822,184	-0,00329
822,36	-0,00308
822,535	-0,00309
822,711	-0,00311
822,886	-0,00311
823,061	-0,00324
823,237	-0,00316
823,412	-0,00311
823,587	-0,00324
823,763	-0,00326
823,938	-0,00314
824,113	-0,0031
824,289	-0,00335
824,464	-0,00343
824,639	-0,00334
824,814	-0,00341
824,99	-0,00332
825,165	-0,00341
825,34	-0,00338
825,515	-0,00338
825,69	-0,00325
825,865	-0,00321
826,04	-0,00308
826,215	-0,00271
826,39	-0,00249
826,566	-0,00249
826,741	-0,00219
826,916	-0,00201
827,091	-0,00203
827,265	-0,00201
827,44	-0,00203
827,615	-0,00206
827,79	-0,00215
827,965	-0,00216
828,14	-0,00241
828,315	-0,00248
828,49	-0,0025
828,665	-0,00256
828,839	-0,00279
829,014	-0,00265
829,189	-0,00277
829,364	-0,00274
829,538	-0,00258
829,713	-0,00251
829,888	-0,00266
830,063	-0,00265
830,237	-0,00288
830,412	-0,00293
830,587	-0,00293
830,761	-0,00269
830,936	-0,00296
831,11	-0,00298
831,285	-0,00305
831,459	-0,00305
831,634	-0,00313
831,809	-0,00292
831,983	-0,0031
832,157	-0,00301
832,332	-0,00313
832,506	-0,00321
832,681	-0,00342
832,855	-0,00336
833,03	-0,0034
833,204	-0,00333
833,378	-0,00354
833,553	-0,00352
833,727	-0,00367
833,901	-0,00349
834,076	-0,00332
834,25	-0,00325
834,424	-0,0033
834,598	-0,00311
834,773	-0,00296
834,947	-0,00277
835,121	-0,00271
835,295	-0,0025
835,469	-0,00253
835,643	-0,00243
835,817	-0,00249
835,991	-0,00279
836,166	-0,00279
836,34	-0,00266
836,514	-0,00283
836,688	-0,00278
836,862	-0,00295
837,036	-0,0031
837,21	-0,00312
837,384	-0,00304
837,557	-0,00313
837,731	-0,00312
837,905	-0,00284
838,079	-0,00275
838,253	-0,00274
838,427	-0,00272
838,601	-0,00294
838,774	-0,00311
838,948	-0,003
839,122	-0,00304
839,296	-0,00286
839,469	-0,0027
839,643	-0,00287
839,817	-0,0031
839,991	-0,00319
840,164	-0,00332
840,338	-0,00359
840,512	-0,00345
840,685	-0,00315
840,859	-0,00329
841,032	-0,00343
841,206	-0,0036
841,379	-0,00367
841,553	-0,0035
841,726	-0,00336
841,9	-0,00328
842,073	-0,00316
842,247	-0,00289
842,42	-0,00295
842,594	-0,00289
842,767	-0,00288
842,94	-0,00275
843,114	-0,00269
843,287	-0,0027
843,46	-0,00269
843,634	-0,00291
843,807	-0,00284
843,98	-0,00285
844,154	-0,00276
844,327	-0,00277
844,5	-0,00297
844,673	-0,00275
844,846	-0,00283
845,02	-0,00286
845,193	-0,00309
845,366	-0,00306
845,539	-0,00303
845,712	-0,00304
845,885	-0,0034
846,058	-0,00351
846,231	-0,00352
846,404	-0,00354
846,577	-0,00372
846,75	-0,00375
846,923	-0,00371
847,096	-0,00353
847,269	-0,00363
847,442	-0,00349
847,615	-0,00354
847,788	-0,00343
847,961	-0,00324
848,133	-0,00311
848,306	-0,00297
848,479	-0,00279
848,652	-0,00266
848,825	-0,00282
848,997	-0,00262
849,17	-0,00256
849,343	-0,00251
849,515	-0,00256
849,688	-0,00244
849,861	-0,0026
850,033	-0,00262
850,206	-0,00269
850,379	-0,00279
850,551	-0,00277
850,724	-0,00262
850,896	-0,00286
851,069	-0,00279
851,241	-0,00272
851,414	-0,00272
851,586	-0,00291
851,759	-0,00288
851,931	-0,00303
852,104	-0,00302
852,276	-0,00317
852,449	-0,00318
852,621	-0,00328
852,793	-0,00331
852,966	-0,00329
853,138	-0,00333
853,31	-0,00334
853,483	-0,00311
853,655	-0,00308
853,827	-0,00309
853,999	-0,00318
854,172	-0,00299
854,344	-0,00309
854,516	-0,00316
854,688	-0,00319
854,86	-0,00352
855,032	-0,00351
855,204	-0,00351
855,377	-0,00382
855,549	-0,00407
855,721	-0,00411
855,893	-0,00403
856,065	-0,00423
856,237	-0,00419
856,409	-0,0041
856,581	-0,00388
856,753	-0,00367
856,924	-0,00372
857,096	-0,00349
857,268	-0,00305
857,44	-0,00292
857,612	-0,00286
857,784	-0,00295
857,956	-0,00291
858,127	-0,00294
858,299	-0,00311
858,471	-0,00317
858,643	-0,00326
858,814	-0,0034
858,986	-0,00338
859,158	-0,00362
859,33	-0,00359
859,501	-0,00377
859,673	-0,00384
859,844	-0,00367
860,016	-0,00377
860,188	-0,0037
860,359	-0,00375
860,531	-0,00361
860,702	-0,00376
860,874	-0,00409
861,045	-0,00407
861,217	-0,00414
861,388	-0,00406
861,56	-0,00395
861,731	-0,00409
861,902	-0,00403
862,074	-0,00398
862,245	-0,00409
862,417	-0,0042
862,588	-0,00384
862,759	-0,00391
862,931	-0,00402
863,102	-0,00389
863,273	-0,00379
863,444	-0,00375
863,616	-0,00385
863,787	-0,00399
863,958	-0,00425
864,129	-0,00425
864,3	-0,00439
864,471	-0,00469
864,642	-0,0043
864,814	-0,00425
864,985	-0,00444
865,156	-0,00472
865,327	-0,00488
865,498	-0,00457
865,669	-0,00455
865,84	-0,00432
866,011	-0,00421
866,182	-0,00401
866,353	-0,00392
866,523	-0,00409
866,694	-0,00401
866,865	-0,00397
867,036	-0,00389
867,207	-0,00381
867,378	-0,00416
867,549	-0,00417
867,719	-0,00439
867,89	-0,00449
868,061	-0,00447
868,232	-0,00469
868,402	-0,00492
868,573	-0,00499
868,744	-0,00481
868,914	-0,00467
869,085	-0,00466
869,256	-0,00449
869,426	-0,00459
869,597	-0,00431
869,767	-0,00439
869,938	-0,00434
870,108	-0,00385
870,279	-0,00372
870,449	-0,00389
870,62	-0,00417
870,79	-0,00426
870,961	-0,00409
871,131	-0,00413
871,302	-0,00378
871,472	-0,00375
871,642	-0,00372
871,813	-0,00375
871,983	-0,00399
872,153	-0,00405
872,324	-0,00407
872,494	-0,00407
872,664	-0,00416
872,835	-0,00403
873,005	-0,00379
873,175	-0,00402
873,345	-0,00411
873,515	-0,00408
873,685	-0,0042
873,856	-0,00407
874,026	-0,00409
874,196	-0,00373
874,366	-0,00343
874,536	-0,00322
874,706	-0,0036
874,876	-0,00394
875,046	-0,00399
875,216	-0,00401
875,386	-0,00355
875,556	-0,00327
875,726	-0,00372
875,896	-0,00353
876,066	-0,00365
876,236	-0,00404
876,405	-0,00408
876,575	-0,00403
876,745	-0,00384
876,915	-0,00346
877,085	-0,00334
877,254	-0,0038
877,424	-0,00381
877,594	-0,00335
877,764	-0,00351
877,933	-0,00336
878,103	-0,0031
878,273	-0,0027
878,442	-0,00305
878,612	-0,00321
878,781	-0,0035
878,951	-0,00322
879,121	-0,00334
879,29	-0,00379
879,46	-0,00388
879,629	-0,00351
879,799	-0,00361
879,968	-0,00356
880,138	-0,00362
880,307	-0,00322
880,476	-0,00296
880,646	-0,003
880,815	-0,00335
880,985	-0,0032
881,154	-0,00309
881,323	-0,00297
881,493	-0,00325
881,662	-0,00349
881,831	-0,00341
882	-0,00334
882,17	-0,00337
882,339	-0,00359
882,508	-0,00343
882,677	-0,00312
882,846	-0,00287
883,016	-0,00273
883,185	-0,00274
883,354	-0,00274
883,523	-0,00252
883,692	-0,00283
883,861	-0,00294
884,03	-0,00336
884,199	-0,00342
884,368	-0,00323
884,537	-0,00361
884,706	-0,00382
884,875	-0,00406
885,044	-0,0041
885,213	-0,00376
885,382	-0,00379
885,55	-0,00391
885,719	-0,00406
885,888	-0,00383
886,057	-0,00409
886,226	-0,00447
886,395	-0,00423
886,563	-0,00416
886,732	-0,00416
886,901	-0,00421
887,069	-0,00445
887,238	-0,00455
887,407	-0,00418
887,575	-0,00416
887,744	-0,00398
887,913	-0,00392
888,081	-0,00386
888,25	-0,0039
888,418	-0,00404
888,587	-0,00393
888,755	-0,0041
888,924	-0,00416
889,092	-0,00382
889,261	-0,00396
889,429	-0,00418
889,598	-0,00409
889,766	-0,00343
889,935	-0,00329
890,103	-0,00386
890,271	-0,00374
890,44	-0,00393
890,608	-0,00406
890,776	-0,00399
890,944	-0,00438
891,113	-0,00448
891,281	-0,00458
891,449	-0,00497
891,617	-0,00535
891,786	-0,00537
891,954	-0,00525
892,122	-0,00527
892,29	-0,00476
892,458	-0,0047
892,626	-0,00447
892,794	-0,00436
892,962	-0,00424
893,13	-0,00394
893,298	-0,00343
893,466	-0,00338
