Data from Chemiepractica_Absorbance__23__11-42-53-142.txt Node

Date: Mon Dec 09 11:42:53 CET 2024
User: r0948668
Spectrometer: USB4F07138
Trigger mode: 4
Integration Time (sec): 6,000000E-3
Scans to average: 20
Electric dark correction enabled: true
Nonlinearity correction enabled: false
Boxcar width: 5
XAxis mode: Wavelengths
Number of Pixels in Spectrum: 3648
>>>>>Begin Spectral Data<<<<<
176,779	-0
176,999	-0,97114
177,218	-0,43765
177,438	-0
177,658	-0
177,878	-0
178,097	-0
178,317	-0
178,537	-0
178,757	0,36506
178,976	0,18059
179,196	0,16241
179,416	-0
179,635	-0,19277
179,855	-0,05998
180,075	-0,10505
180,294	-0,10397
180,514	-0,12197
180,734	-0,02796
180,953	-0,00108
181,173	0,01156
181,392	0,01412
181,612	0,00321
181,832	0,02224
182,051	0,02107
182,271	0,01173
182,49	0,01057
182,71	0,0114
182,929	0,02268
183,149	0,0082
183,368	0,01309
183,588	0,01171
183,807	0,02786
184,027	0,0464
184,246	0,02785
184,466	0,02197
184,685	0,03453
184,905	0,0333
185,124	0,0288
185,344	0,03021
185,563	0,03128
185,782	0,02389
186,002	0,02343
186,221	0,00773
186,44	0,01589
186,66	0,0242
186,879	0,04727
187,099	0,03685
187,318	0,04702
187,537	0,05154
187,756	0,05465
187,976	0,05155
188,195	0,056
188,414	0,06024
188,634	0,06395
188,853	0,04801
189,072	0,04252
189,291	0,02537
189,511	0,0391
189,73	0,04578
189,949	0,04899
190,168	0,05233
190,387	0,06565
190,607	0,06536
190,826	0,06035
191,045	0,05761
191,264	0,06503
191,483	0,0608
191,702	0,06305
191,921	0,05132
192,141	0,04256
192,36	0,03837
192,579	0,03027
192,798	0,0348
193,017	0,02538
193,236	0,03498
193,455	0,04773
193,674	0,04402
193,893	0,04514
194,112	0,05002
194,331	0,04988
194,55	0,04969
194,769	0,05199
194,988	0,04574
195,207	0,04092
195,426	0,04013
195,645	0,03392
195,864	0,01762
196,083	0,01571
196,302	0,00825
196,521	0,0107
196,739	0,00724
196,958	0,00252
197,177	-0,00314
197,396	0,01276
197,615	-0,00446
197,834	-0,00732
198,053	-0,01759
198,271	-0,02445
198,49	-0,00852
198,709	0,02017
198,928	0,01311
199,147	0,01715
199,365	0,03126
199,584	0,0356
199,803	0,01026
200,022	0,02999
200,24	0,02213
200,459	0,03569
200,678	0,04643
200,897	0,02448
201,115	0,00601
201,334	0,01973
201,553	0,01928
201,771	0,00565
201,99	0,0066
202,209	0,03284
202,427	0,02432
202,646	0,03672
202,864	0,03395
203,083	0,02448
203,302	0,03706
203,52	0,05132
203,739	0,04148
203,957	0,04189
204,176	0,04508
204,394	0,04788
204,613	0,03865
204,831	0,04213
205,05	0,04899
205,268	0,0574
205,487	0,06918
205,705	0,0627
205,924	0,06397
206,142	0,06948
206,361	0,06976
206,579	0,06805
206,798	0,06824
207,016	0,06821
207,234	0,06512
207,453	0,06773
207,671	0,07139
207,89	0,07673
208,108	0,08149
208,326	0,06205
208,545	0,04886
208,763	0,04442
208,981	0,04045
209,2	0,02487
209,418	0,02073
209,636	0,00107
209,855	-0,01024
210,073	-0,02791
210,291	-0,03824
210,509	-0,03678
210,728	-0,03324
210,946	-0,01837
211,164	-0,01709
211,382	-0,01101
211,6	0,01149
211,819	0,01105
212,037	0,02193
212,255	0,01688
212,473	0,01219
212,691	0,01632
212,909	0,02012
213,128	0,01479
213,346	0,00633
213,564	0,01931
213,782	0,02157
214	0,0138
214,218	0,0137
214,436	0,02155
214,654	0,0221
214,872	0,02151
215,09	0,01103
215,308	0,00672
215,526	0,01097
215,744	0,01173
215,962	0,00331
216,18	-0,00718
216,398	0,00759
216,616	0,00515
216,834	-0,00445
217,052	0,00765
217,27	0,01239
217,488	0,02179
217,706	0,02886
217,924	0,02824
218,142	0,0173
218,36	0,02403
218,578	0,04041
218,795	0,01625
219,013	0,0129
219,231	0,01798
219,449	0,01304
219,667	0,01804
219,885	0,01498
220,102	0,02382
220,32	0,0326
220,538	0,04875
220,756	0,0381
220,973	0,04097
221,191	0,05522
221,409	0,06166
221,627	0,06696
221,844	0,0627
222,062	0,0641
222,28	0,06499
222,497	0,03647
222,715	0,04198
222,933	0,03629
223,15	0,03757
223,368	0,03309
223,586	0,04271
223,803	0,04746
224,021	0,04658
224,239	0,0472
224,456	0,05199
224,674	0,05319
224,891	0,07195
225,109	0,06202
225,326	0,05575
225,544	0,05648
225,762	0,04414
225,979	0,04216
226,197	0,04096
226,414	0,03395
226,632	0,03194
226,849	0,02175
227,066	0,0203
227,284	0,02089
227,501	0,02735
227,719	0,03466
227,936	0,04363
228,154	0,05986
228,371	0,04564
228,588	0,04583
228,806	0,05877
229,023	0,0575
229,241	0,06947
229,458	0,07394
229,675	0,07362
229,893	0,06691
230,11	0,07011
230,327	0,04868
230,545	0,03173
230,762	0,03473
230,979	0,03847
231,196	0,03343
231,414	0,02736
231,631	0,00961
231,848	-0,00128
232,065	-0,00687
232,283	-0,01295
232,5	-0,01259
232,717	-0,00369
232,934	0,00203
233,151	0,00328
233,368	-0,00433
233,586	-0,00202
233,803	0,005
234,02	0,02147
234,237	0,02392
234,454	0,02718
234,671	0,04808
234,888	0,04307
235,105	0,0509
235,322	0,05963
235,54	0,0563
235,757	0,07167
235,974	0,06913
236,191	0,0696
236,408	0,07053
236,625	0,0766
236,842	0,07229
237,059	0,06506
237,276	0,05111
237,493	0,05031
237,71	0,05422
237,926	0,06357
238,143	0,05128
238,36	0,05432
238,577	0,05983
238,794	0,05255
239,011	0,05625
239,228	0,06191
239,445	0,05711
239,662	0,08046
239,878	0,09139
240,095	0,07676
240,312	0,07705
240,529	0,07803
240,746	0,07613
240,963	0,07447
241,179	0,07064
241,396	0,07532
241,613	0,06463
241,83	0,06739
242,046	0,05856
242,263	0,04812
242,48	0,05405
242,697	0,04739
242,913	0,05322
243,13	0,04098
243,347	0,04517
243,563	0,04841
243,78	0,05018
243,997	0,05646
244,213	0,04537
244,43	0,05632
244,646	0,05941
244,863	0,05719
245,08	0,05868
245,296	0,05256
245,513	0,04778
245,729	0,0484
245,946	0,05655
246,162	0,05682
246,379	0,06085
246,595	0,06686
246,812	0,05276
247,028	0,0582
247,245	0,0605
247,461	0,05017
247,678	0,04538
247,894	0,06793
248,111	0,05964
248,327	0,05643
248,544	0,04747
248,76	0,05197
248,976	0,06499
249,193	0,0625
249,409	0,05667
249,626	0,0528
249,842	0,06875
250,058	0,08057
250,275	0,07548
250,491	0,07391
250,707	0,06519
250,924	0,06565
251,14	0,05964
251,356	0,04797
251,572	0,04408
251,789	0,04556
252,005	0,05648
252,221	0,0563
252,437	0,05388
252,654	0,04946
252,87	0,04288
253,086	0,05986
253,302	0,0628
253,518	0,0664
253,735	0,07022
253,951	0,07876
254,167	0,07709
254,383	0,0604
254,599	0,04604
254,815	0,04236
255,031	0,04005
255,247	0,03416
255,463	0,0188
255,68	0,02542
255,896	0,02741
256,112	0,01987
256,328	0,0252
256,544	0,02396
256,76	0,0358
256,976	0,04044
257,192	0,04531
257,408	0,05106
257,624	0,06422
257,84	0,07647
258,056	0,06601
258,272	0,06571
258,487	0,06064
258,703	0,05276
258,919	0,05622
259,135	0,0475
259,351	0,05196
259,567	0,05766
259,783	0,05989
259,999	0,06412
260,215	0,05856
260,43	0,04574
260,646	0,03797
260,862	0,0463
261,078	0,05329
261,294	0,05176
261,509	0,0654
261,725	0,06358
261,941	0,05897
262,157	0,05922
262,372	0,05238
262,588	0,04436
262,804	0,06267
263,019	0,06482
263,235	0,05817
263,451	0,05555
263,667	0,06156
263,882	0,06123
264,098	0,06616
264,313	0,05725
264,529	0,04747
264,745	0,0632
264,96	0,06279
265,176	0,0592
265,391	0,05402
265,607	0,06663
265,823	0,0677
266,038	0,06511
266,254	0,06149
266,469	0,05379
266,685	0,05644
266,9	0,05928
267,116	0,05288
267,331	0,06428
267,547	0,06714
267,762	0,06325
267,978	0,06264
268,193	0,06147
268,408	0,05873
268,624	0,06036
268,839	0,06246
269,055	0,06381
269,27	0,06696
269,485	0,06563
269,701	0,06038
269,916	0,05427
270,132	0,07007
270,347	0,07058
270,562	0,07377
270,777	0,07411
270,993	0,07259
271,208	0,07748
271,423	0,08108
271,639	0,08348
271,854	0,07268
272,069	0,06902
272,284	0,07103
272,5	0,06167
272,715	0,05518
272,93	0,04481
273,145	0,03591
273,36	0,03958
273,576	0,04222
273,791	0,03213
274,006	0,02893
274,221	0,03618
274,436	0,04304
274,651	0,04048
274,866	0,05099
275,081	0,05414
275,296	0,06216
275,512	0,07954
275,727	0,08219
275,942	0,07873
276,157	0,08798
276,372	0,0877
276,587	0,09498
276,802	0,09523
277,017	0,09217
277,232	0,09342
277,447	0,09608
277,662	0,0929
277,877	0,07992
278,092	0,06895
278,306	0,0714
278,521	0,07141
278,736	0,07691
278,951	0,06629
279,166	0,05749
279,381	0,05589
279,596	0,04637
279,811	0,04193
280,025	0,03536
280,24	0,03586
280,455	0,04765
280,67	0,04728
280,885	0,04612
281,099	0,03485
281,314	0,03202
281,529	0,04283
281,744	0,05536
281,959	0,05672
282,173	0,06066
282,388	0,06645
282,603	0,06704
282,817	0,06062
283,032	0,05748
283,247	0,05314
283,461	0,05822
283,676	0,05703
283,891	0,04668
284,105	0,04683
284,32	0,05283
284,535	0,04995
284,749	0,05061
284,964	0,05583
285,178	0,05465
285,393	0,06113
285,607	0,06247
285,822	0,07075
286,036	0,08415
286,251	0,08586
286,465	0,08032
286,68	0,07279
286,894	0,06669
287,109	0,06839
287,323	0,04989
287,538	0,05373
287,752	0,04385
287,967	0,0442
288,181	0,0416
288,396	0,04138
288,61	0,04975
288,824	0,05034
289,039	0,05394
289,253	0,0577
289,467	0,05555
289,682	0,06807
289,896	0,06845
290,11	0,07005
290,325	0,07726
290,539	0,06587
290,753	0,06414
290,968	0,05791
291,182	0,04319
291,396	0,04415
291,61	0,05339
291,825	0,05721
292,039	0,06787
292,253	0,07116
292,467	0,07496
292,681	0,06736
292,896	0,07394
293,11	0,0647
293,324	0,072
293,538	0,08913
293,752	0,09019
293,966	0,07891
294,18	0,0773
294,394	0,05928
294,608	0,0529
294,823	0,04984
295,037	0,0494
295,251	0,04244
295,465	0,05108
295,679	0,04351
295,893	0,03607
296,107	0,02871
296,321	0,03635
296,535	0,02719
296,749	0,03836
296,963	0,03405
297,177	0,03002
297,391	0,02717
297,604	0,03073
297,818	0,02514
298,032	0,02279
298,246	0,01964
298,46	0,02702
298,674	0,02534
298,888	0,03732
299,102	0,03736
299,315	0,04175
299,529	0,05162
299,743	0,05571
299,957	0,05009
300,171	0,04516
300,385	0,05297
300,598	0,05715
300,812	0,05569
301,026	0,05227
301,24	0,05637
301,453	0,05306
301,667	0,05279
301,881	0,05408
302,094	0,04825
302,308	0,0558
302,522	0,06942
302,735	0,06635
302,949	0,06752
303,163	0,06153
303,376	0,06217
303,59	0,05645
303,803	0,0481
304,017	0,04632
304,231	0,04202
304,444	0,05471
304,658	0,05369
304,871	0,05049
305,085	0,0451
305,298	0,04263
305,512	0,05016
305,725	0,04705
305,939	0,04674
306,152	0,04406
306,366	0,03075
306,579	0,03017
306,793	0,02965
307,006	0,03266
307,22	0,03465
307,433	0,03936
307,646	0,03528
307,86	0,03567
308,073	0,04499
308,286	0,03163
308,5	0,03927
308,713	0,04513
308,926	0,04431
309,14	0,03931
309,353	0,03574
309,566	0,02195
309,78	0,01352
309,993	0,01808
310,206	0,01972
310,419	0,01005
310,633	0,02116
310,846	0,03235
311,059	0,03719
311,272	0,02881
311,486	0,02497
311,699	0,02066
311,912	0,02618
312,125	0,0315
312,338	0,03056
312,551	0,02255
312,764	0,02799
312,978	0,03175
313,191	0,02343
313,404	0,02047
313,617	0,02813
313,83	0,03476
314,043	0,0428
314,256	0,0475
314,469	0,03528
314,682	0,03758
314,895	0,0349
315,108	0,04399
315,321	0,03922
315,534	0,0403
315,747	0,04213
315,96	0,049
316,173	0,03808
316,386	0,03419
316,599	0,03557
316,812	0,04691
317,025	0,05219
317,237	0,05125
317,45	0,03817
317,663	0,04217
317,876	0,04467
318,089	0,04334
318,302	0,03478
318,515	0,0404
318,727	0,04026
318,94	0,03972
319,153	0,04196
319,366	0,03826
319,578	0,03873
319,791	0,04887
320,004	0,03565
320,217	0,03543
320,429	0,04225
320,642	0,04477
320,855	0,038
321,067	0,03851
321,28	0,0377
321,493	0,02918
321,705	0,0218
321,918	0,02588
322,131	0,01536
322,343	0,0188
322,556	0,01343
322,768	0,00702
322,981	0,00074
323,194	0,00923
323,406	0,00252
323,619	-0,00529
323,831	0,00235
324,044	0,01241
324,256	0,014
324,469	0,01007
324,681	0,01573
324,894	0,01777
325,106	0,02644
325,319	0,02212
325,531	0,01848
325,743	0,02193
325,956	0,03147
326,168	0,03
326,381	0,0248
326,593	0,01383
326,805	0,02758
327,018	0,03208
327,23	0,02343
327,442	0,0226
327,655	0,02309
327,867	0,02966
328,079	0,02453
328,292	0,0246
328,504	0,03107
328,716	0,02505
328,928	0,03219
329,141	0,02231
329,353	0,02019
329,565	0,03021
329,777	0,02264
329,99	0,02917
330,202	0,02645
330,414	0,02723
330,626	0,02748
330,838	0,02236
331,05	0,0263
331,263	0,02381
331,475	0,03189
331,687	0,02737
331,899	0,03172
332,111	0,03744
332,323	0,03413
332,535	0,0292
332,747	0,03502
332,959	0,02895
333,171	0,0342
333,383	0,03248
333,595	0,0312
333,807	0,02301
334,019	0,03377
334,231	0,0296
334,443	0,02488
334,655	0,03107
334,867	0,0343
335,079	0,02991
335,291	0,02406
335,503	0,02294
335,714	0,02349
335,926	0,03642
336,138	0,03456
336,35	0,02115
336,562	0,01771
336,774	0,0219
336,986	0,02135
337,197	0,02584
337,409	0,0291
337,621	0,0298
337,833	0,02207
338,044	0,02823
338,256	0,01886
338,468	0,02442
338,68	0,02911
338,891	0,02836
339,103	0,01793
339,315	0,01486
339,526	0,00387
339,738	0,00327
339,95	0,00317
340,161	0,02385
340,373	0,01508
340,585	0,00572
340,796	0,00365
341,008	0,00355
341,219	0,00741
341,431	0,01139
341,642	0,01029
341,854	0,01795
342,065	0,02239
342,277	0,02287
342,489	0,00449
342,7	0,01175
342,912	0,02075
343,123	0,02286
343,334	0,02701
343,546	0,01505
343,757	0,02245
343,969	0,0178
344,18	0,01186
344,392	0,00704
344,603	0,02118
344,814	0,02851
345,026	0,03013
345,237	0,0368
345,448	0,04205
345,66	0,04147
345,871	0,04907
346,082	0,05213
346,294	0,05398
346,505	0,05737
346,716	0,06205
346,927	0,04736
347,139	0,04627
347,35	0,04664
347,561	0,03778
347,772	0,02854
347,984	0,02558
348,195	0,02562
348,406	0,0136
348,617	0,01965
348,828	0,01897
349,039	0,01316
349,251	0,01207
349,462	0,00562
349,673	-0,0034
349,884	-0,00084
350,095	0,00406
350,306	0,00525
350,517	0,01303
350,728	0,02044
350,939	0,02133
351,15	0,02787
351,361	0,02782
351,572	0,04541
351,783	0,04914
351,994	0,05337
352,205	0,05162
352,416	0,04019
352,627	0,04594
352,838	0,03944
353,049	0,04083
353,26	0,03735
353,471	0,0285
353,682	0,03288
353,893	0,02321
354,103	0,02276
354,314	0,01718
354,525	0,02015
354,736	0,02689
354,947	0,025
355,157	0,02118
355,368	0,02244
355,579	0,02059
355,79	0,02675
356,001	0,02397
356,211	0,0269
356,422	0,01547
356,633	0,02326
356,843	0,02299
357,054	0,0297
357,265	0,02963
357,476	0,03518
357,686	0,03144
357,897	0,03258
358,107	0,02817
358,318	0,03311
358,529	0,02979
358,739	0,0453
358,95	0,04203
359,16	0,04402
359,371	0,03964
359,582	0,03316
359,792	0,03272
360,003	0,03212
360,213	0,03046
360,424	0,03642
360,634	0,03826
360,845	0,0317
361,055	0,03262
361,266	0,03688
361,476	0,04405
361,686	0,04839
361,897	0,04813
362,107	0,05707
362,318	0,05251
362,528	0,05257
362,738	0,04287
362,949	0,04199
363,159	0,04828
363,369	0,04472
363,58	0,04069
363,79	0,03329
364	0,02869
364,211	0,0235
364,421	0,01537
364,631	0,02737
364,842	0,02883
365,052	0,03139
365,262	0,02236
365,472	0,02651
365,682	0,02825
365,893	0,03129
366,103	0,03834
366,313	0,0369
366,523	0,04697
366,733	0,04518
366,943	0,03744
367,154	0,03636
367,364	0,04543
367,574	0,05074
367,784	0,0508
367,994	0,05114
368,204	0,05206
368,414	0,04402
368,624	0,04265
368,834	0,04033
369,044	0,04264
369,254	0,04465
369,464	0,04592
369,674	0,04025
369,884	0,03576
370,094	0,03255
370,304	0,02894
370,514	0,02976
370,724	0,03101
370,934	0,02791
371,144	0,02525
371,353	0,02831
371,563	0,03229
371,773	0,03382
371,983	0,03543
372,193	0,04258
372,403	0,04395
372,612	0,04153
372,822	0,03704
373,032	0,03578
373,242	0,04169
373,452	0,04226
373,661	0,0423
373,871	0,0349
374,081	0,0371
374,29	0,03632
374,5	0,03338
374,71	0,02966
374,92	0,02809
375,129	0,03209
375,339	0,03258
375,549	0,03158
375,758	0,03328
375,968	0,02888
376,177	0,03064
376,387	0,02062
376,597	0,02095
376,806	0,02493
377,016	0,02508
377,225	0,02731
377,435	0,02389
377,644	0,02256
377,854	0,02304
378,063	0,02502
378,273	0,02655
378,482	0,02775
378,692	0,0331
378,901	0,03179
379,111	0,0279
379,32	0,03122
379,529	0,03085
379,739	0,03251
379,948	0,03064
380,158	0,03271
380,367	0,0331
380,576	0,03187
380,786	0,02732
380,995	0,02854
381,204	0,03418
381,414	0,0344
381,623	0,03184
381,832	0,03602
382,041	0,03683
382,251	0,0377
382,46	0,03448
382,669	0,02649
382,878	0,02853
383,088	0,03046
383,297	0,02892
383,506	0,02235
383,715	0,02101
383,924	0,02211
384,133	0,0161
384,342	0,01612
384,552	0,0186
384,761	0,02321
384,97	0,02745
385,179	0,02908
385,388	0,03061
385,597	0,03255
385,806	0,03515
386,015	0,0344
386,224	0,03527
386,433	0,03744
386,642	0,03558
386,851	0,0348
387,06	0,03244
387,269	0,03279
387,478	0,03346
387,687	0,0315
387,896	0,03297
388,105	0,03218
388,314	0,0285
388,523	0,02567
388,731	0,02571
388,94	0,02818
389,149	0,02928
389,358	0,02722
389,567	0,02848
389,776	0,02496
389,984	0,02486
390,193	0,02362
390,402	0,02034
390,611	0,02394
390,819	0,0242
391,028	0,02884
391,237	0,0277
391,446	0,02214
391,654	0,02125
391,863	0,01971
392,072	0,01879
392,28	0,02154
392,489	0,02296
392,698	0,02609
392,906	0,02693
393,115	0,02757
393,324	0,02427
393,532	0,02237
393,741	0,02354
393,949	0,02383
394,158	0,02356
394,366	0,02518
394,575	0,02022
394,783	0,01752
394,992	0,01783
395,2	0,01621
395,409	0,01752
395,617	0,01658
395,826	0,01898
396,034	0,01835
396,243	0,01984
396,451	0,02022
396,66	0,02201
396,868	0,0233
397,076	0,02099
397,285	0,01661
397,493	0,01708
397,701	0,01398
397,91	0,01367
398,118	0,01311
398,326	0,0171
398,535	0,01399
398,743	0,01274
398,951	0,01083
399,159	0,01373
399,368	0,01918
399,576	0,02217
399,784	0,02446
399,992	0,02678
400,201	0,02503
400,409	0,02281
400,617	0,02229
400,825	0,02573
401,033	0,02871
401,241	0,02871
401,45	0,02832
401,658	0,02696
401,866	0,02873
402,074	0,02703
402,282	0,02464
402,49	0,02516
402,698	0,02789
402,906	0,02579
403,114	0,02395
403,322	0,02248
403,53	0,02242
403,738	0,02278
403,946	0,01918
404,154	0,01468
404,362	0,01514
404,57	0,01575
404,778	0,01799
404,986	0,01842
405,194	0,01859
405,402	0,02022
405,609	0,01903
405,817	0,01676
406,025	0,01783
406,233	0,02084
406,441	0,02494
406,649	0,02311
406,856	0,02443
407,064	0,02438
407,272	0,02275
407,48	0,02415
407,687	0,02339
407,895	0,02557
408,103	0,02582
408,311	0,02355
408,518	0,02163
408,726	0,01964
408,934	0,02121
409,141	0,01999
409,349	0,0162
409,557	0,01596
409,764	0,01484
409,972	0,01575
410,18	0,0134
410,387	0,01583
410,595	0,01577
410,802	0,01647
411,01	0,01736
411,217	0,01668
411,425	0,01693
411,632	0,01932
411,84	0,02045
412,047	0,02003
412,255	0,01818
412,462	0,01904
412,67	0,01848
412,877	0,01785
413,085	0,0159
413,292	0,01543
413,499	0,01499
413,707	0,01627
413,914	0,01705
414,122	0,01466
414,329	0,01451
414,536	0,01491
414,744	0,01381
414,951	0,01372
415,158	0,0149
415,366	0,01465
415,573	0,01465
415,78	0,01551
415,987	0,01339
416,195	0,01308
416,402	0,01257
416,609	0,01473
416,816	0,01663
417,023	0,01937
417,231	0,02013
417,438	0,0188
417,645	0,01789
417,852	0,01735
418,059	0,01781
418,266	0,01602
418,473	0,01335
418,68	0,01608
418,888	0,01572
419,095	0,01576
419,302	0,01475
419,509	0,0145
419,716	0,01542
419,923	0,01807
420,13	0,01728
420,337	0,01632
420,544	0,0179
420,751	0,01923
420,958	0,01862
421,165	0,01997
421,371	0,01786
421,578	0,01794
421,785	0,01687
421,992	0,01709
422,199	0,0161
422,406	0,01785
422,613	0,01788
422,82	0,01873
423,026	0,01952
423,233	0,01978
423,44	0,01599
423,647	0,01547
423,854	0,01412
424,06	0,01332
424,267	0,01267
424,474	0,01421
424,681	0,01285
424,887	0,01312
425,094	0,01274
425,301	0,01341
425,507	0,01187
425,714	0,01268
425,921	0,01268
426,127	0,01181
426,334	0,01309
426,54	0,01231
426,747	0,01222
426,954	0,01175
427,16	0,01201
427,367	0,01028
427,573	0,01079
427,78	0,01155
427,986	0,01164
428,193	0,01241
428,399	0,01311
428,606	0,01217
428,812	0,01267
429,019	0,01158
429,225	0,01327
429,432	0,0141
429,638	0,01526
429,845	0,01447
430,051	0,01521
430,257	0,01494
430,464	0,01548
430,67	0,01638
430,876	0,01607
431,083	0,01739
431,289	0,01828
431,495	0,0184
431,702	0,01758
431,908	0,01701
432,114	0,01621
432,32	0,01586
432,527	0,01581
432,733	0,01469
432,939	0,01435
433,145	0,01486
433,351	0,01389
433,558	0,01412
433,764	0,01373
433,97	0,01303
434,176	0,01352
434,382	0,01405
434,588	0,01269
434,794	0,01304
435,001	0,01429
435,207	0,01379
435,413	0,01368
435,619	0,01375
435,825	0,01246
436,031	0,01255
436,237	0,01412
436,443	0,0159
436,649	0,01634
436,855	0,01798
437,061	0,0199
437,267	0,02026
437,473	0,02068
437,679	0,02187
437,884	0,02248
438,09	0,02252
438,296	0,02199
438,502	0,01963
438,708	0,01861
438,914	0,01764
439,12	0,01791
439,325	0,01635
439,531	0,01641
439,737	0,01675
439,943	0,01613
440,149	0,01601
440,354	0,01671
440,56	0,01648
440,766	0,01797
440,972	0,01837
441,177	0,02018
441,383	0,02006
441,589	0,02097
441,794	0,02021
442	0,02102
442,206	0,02133
442,411	0,02089
442,617	0,02026
442,822	0,02141
443,028	0,02092
443,234	0,02163
443,439	0,02062
443,645	0,0197
443,85	0,01917
444,056	0,01989
444,261	0,02013
444,467	0,02006
444,672	0,02065
444,878	0,02174
445,083	0,0221
445,289	0,02264
445,494	0,02201
445,699	0,02247
445,905	0,02313
446,11	0,02411
446,316	0,02446
446,521	0,02404
446,726	0,02445
446,932	0,02412
447,137	0,02511
447,342	0,02429
447,548	0,02331
447,753	0,02396
447,958	0,0243
448,164	0,02436
448,369	0,02383
448,574	0,0229
448,779	0,02295
448,984	0,02373
449,19	0,02431
449,395	0,02341
449,6	0,02383
449,805	0,02559
450,01	0,02535
450,215	0,02493
450,421	0,02625
450,626	0,02703
450,831	0,02656
451,036	0,02674
451,241	0,02647
451,446	0,02566
451,651	0,02626
451,856	0,02651
452,061	0,02651
452,266	0,02668
452,471	0,02755
452,676	0,02706
452,881	0,02679
453,086	0,02809
453,291	0,02856
453,496	0,02828
453,701	0,02932
453,906	0,02935
454,111	0,02926
454,316	0,02948
454,52	0,0299
454,725	0,02922
454,93	0,02927
455,135	0,02932
455,34	0,02917
455,545	0,02874
455,749	0,0289
455,954	0,02897
456,159	0,02944
456,364	0,03002
456,568	0,03017
456,773	0,03093
456,978	0,03151
457,182	0,03193
457,387	0,03226
457,592	0,03312
457,796	0,03364
458,001	0,03467
458,206	0,03517
458,41	0,03517
458,615	0,03502
458,82	0,03565
459,024	0,03572
459,229	0,03676
459,433	0,03703
459,638	0,03695
459,842	0,03713
460,047	0,03697
460,251	0,03649
460,456	0,03657
460,66	0,03698
460,865	0,03707
461,069	0,03662
461,274	0,03635
461,478	0,03547
461,682	0,03534
461,887	0,03624
462,091	0,03634
462,296	0,03776
462,5	0,03823
462,704	0,03812
462,909	0,03777
463,113	0,03846
463,317	0,03882
463,522	0,03956
463,726	0,04055
463,93	0,04092
464,134	0,04089
464,339	0,04097
464,543	0,04006
464,747	0,04005
464,951	0,04113
465,155	0,04141
465,36	0,04213
465,564	0,04221
465,768	0,04189
465,972	0,04254
466,176	0,043
466,38	0,04381
466,584	0,04466
466,788	0,0453
466,993	0,0463
467,197	0,04642
467,401	0,0471
467,605	0,04682
467,809	0,04777
468,013	0,04875
468,217	0,04861
468,421	0,04842
468,625	0,04798
468,829	0,04827
469,033	0,04875
469,236	0,0488
469,44	0,04878
469,644	0,04892
469,848	0,04901
470,052	0,04976
470,256	0,04907
470,46	0,04973
470,664	0,0504
470,867	0,05135
471,071	0,05151
471,275	0,05185
471,479	0,05237
471,683	0,05309
471,886	0,05395
472,09	0,05476
472,294	0,05498
472,497	0,05596
472,701	0,05595
472,905	0,0563
473,109	0,05656
473,312	0,05685
473,516	0,05753
473,719	0,05794
473,923	0,0582
474,127	0,05837
474,33	0,0585
474,534	0,05865
474,737	0,05955
474,941	0,0599
475,145	0,06052
475,348	0,06089
475,552	0,06123
475,755	0,06151
475,959	0,06212
476,162	0,06278
476,366	0,06371
476,569	0,06419
476,772	0,06474
476,976	0,06469
477,179	0,06523
477,383	0,06547
477,586	0,06587
477,789	0,0665
477,993	0,06715
478,196	0,06739
478,399	0,06787
478,603	0,06808
478,806	0,06903
479,009	0,06937
479,213	0,06977
479,416	0,07016
479,619	0,07134
479,822	0,07197
480,026	0,07277
480,229	0,07317
480,432	0,07373
480,635	0,0741
480,838	0,07473
481,041	0,07481
481,245	0,07547
481,448	0,07622
481,651	0,07692
481,854	0,07702
482,057	0,07747
482,26	0,07792
482,463	0,07873
482,666	0,07916
482,869	0,07995
483,072	0,08027
483,275	0,08102
483,478	0,0812
483,681	0,08215
483,884	0,08283
484,087	0,08366
484,29	0,08459
484,493	0,08539
484,696	0,08576
484,899	0,08675
485,102	0,08722
485,305	0,08768
485,508	0,0888
485,71	0,08989
485,913	0,09017
486,116	0,09078
486,319	0,0914
486,522	0,09167
486,725	0,09203
486,927	0,09304
487,13	0,09343
487,333	0,09412
487,536	0,09512
487,738	0,09573
487,941	0,09637
488,144	0,09742
488,346	0,0979
488,549	0,09812
488,752	0,09884
488,954	0,09985
489,157	0,10023
489,359	0,10083
489,562	0,1014
489,765	0,10197
489,967	0,10223
490,17	0,10277
490,372	0,10308
490,575	0,10409
490,777	0,10526
490,98	0,10607
491,182	0,1064
491,385	0,10708
491,587	0,10805
491,79	0,10929
491,992	0,10983
492,195	0,11079
492,397	0,1118
492,599	0,11264
492,802	0,11306
493,004	0,11377
493,207	0,11445
493,409	0,11553
493,611	0,11641
493,814	0,11716
494,016	0,11752
494,218	0,11832
494,42	0,11923
494,623	0,11987
494,825	0,12066
495,027	0,12135
495,229	0,12216
495,432	0,12285
495,634	0,12352
495,836	0,12427
496,038	0,12478
496,24	0,1256
496,442	0,12652
496,645	0,12694
496,847	0,1277
497,049	0,12857
497,251	0,12961
497,453	0,13045
497,655	0,13158
497,857	0,13266
498,059	0,13375
498,261	0,13476
498,463	0,13597
498,665	0,13692
498,867	0,13813
499,069	0,13911
499,271	0,13981
499,473	0,14096
499,675	0,14164
499,877	0,14243
500,079	0,14309
500,281	0,14352
500,482	0,14448
500,684	0,14527
500,886	0,14609
501,088	0,1468
501,29	0,14772
501,492	0,1485
501,693	0,14951
501,895	0,15072
502,097	0,1517
502,299	0,15261
502,5	0,15385
502,702	0,15488
502,904	0,156
503,106	0,15727
503,307	0,15827
503,509	0,15926
503,711	0,16076
503,912	0,1617
504,114	0,16256
504,315	0,16332
504,517	0,16447
504,719	0,16554
504,92	0,16645
505,122	0,16709
505,323	0,16791
505,525	0,16914
505,726	0,17023
505,928	0,17105
506,129	0,1721
506,331	0,17316
506,532	0,17462
506,734	0,1756
506,935	0,17672
507,137	0,17802
507,338	0,17921
507,539	0,18023
507,741	0,1814
507,942	0,18238
508,143	0,18353
508,345	0,1846
508,546	0,18564
508,747	0,18686
508,949	0,1882
509,15	0,1894
509,351	0,19057
509,553	0,19177
509,754	0,19287
509,955	0,19398
510,156	0,19548
510,357	0,19662
510,559	0,19788
510,76	0,199
510,961	0,2003
511,162	0,20141
511,363	0,20252
511,564	0,20349
511,766	0,20472
511,967	0,20617
512,168	0,20734
512,369	0,20847
512,57	0,20991
512,771	0,21124
512,972	0,21256
513,173	0,21376
513,374	0,215
513,575	0,21622
513,776	0,21759
513,977	0,21871
514,178	0,21996
514,379	0,22115
514,58	0,22231
514,781	0,2236
514,981	0,22494
515,182	0,22622
515,383	0,22744
515,584	0,22865
515,785	0,23011
515,986	0,23144
516,187	0,23298
516,387	0,23432
516,588	0,2358
516,789	0,2371
516,99	0,2383
517,19	0,23937
517,391	0,24085
517,592	0,24218
517,793	0,24367
517,993	0,24503
518,194	0,24637
518,395	0,24768
518,595	0,2491
518,796	0,25043
518,996	0,25186
519,197	0,25348
519,398	0,25477
519,598	0,25628
519,799	0,25763
519,999	0,25914
520,2	0,26036
520,4	0,26163
520,601	0,26318
520,801	0,26443
521,002	0,26588
521,202	0,26738
521,403	0,26863
521,603	0,2702
521,804	0,2714
522,004	0,27273
522,204	0,27398
522,405	0,27528
522,605	0,27671
522,806	0,27775
523,006	0,27932
523,206	0,28059
523,407	0,28195
523,607	0,28316
523,807	0,28446
524,007	0,28577
524,208	0,28696
524,408	0,28827
524,608	0,28981
524,808	0,29133
525,009	0,2929
525,209	0,29407
525,409	0,29564
525,609	0,29668
525,809	0,29811
526,009	0,29943
526,209	0,30078
526,41	0,30234
526,61	0,3037
526,81	0,30492
527,01	0,30614
527,21	0,30734
527,41	0,30878
527,61	0,30969
527,81	0,31106
528,01	0,31223
528,21	0,31351
528,41	0,31471
528,61	0,31578
528,81	0,31709
529,01	0,31836
529,21	0,31955
529,41	0,3208
529,609	0,32177
529,809	0,32321
530,009	0,32456
530,209	0,32581
530,409	0,32691
530,609	0,32832
530,808	0,32948
531,008	0,33054
531,208	0,33174
531,408	0,3331
531,608	0,33407
531,807	0,33521
532,007	0,33624
532,207	0,3371
532,406	0,33806
532,606	0,33924
532,806	0,34047
533,005	0,34163
533,205	0,34278
533,405	0,34371
533,604	0,34475
533,804	0,34606
534,003	0,3472
534,203	0,34832
534,403	0,34947
534,602	0,3505
534,802	0,35151
535,001	0,3525
535,201	0,35361
535,4	0,35457
535,6	0,35572
535,799	0,35666
535,998	0,35772
536,198	0,35872
536,397	0,35968
536,597	0,36065
536,796	0,36178
536,995	0,3628
537,195	0,36364
537,394	0,36449
537,594	0,36541
537,793	0,36624
537,992	0,36724
538,191	0,36803
538,391	0,36907
538,59	0,36982
538,789	0,37087
538,988	0,37158
539,188	0,37238
539,387	0,37328
539,586	0,37436
539,785	0,37515
539,984	0,37622
540,184	0,37708
540,383	0,37809
540,582	0,37884
540,781	0,38008
540,98	0,38095
541,179	0,38212
541,378	0,38317
541,577	0,38376
541,776	0,38461
541,975	0,38553
542,174	0,38608
542,373	0,38671
542,572	0,3873
542,771	0,38775
542,97	0,38835
543,169	0,38877
543,368	0,38931
543,567	0,39002
543,766	0,39082
543,965	0,39121
544,164	0,3919
544,362	0,39266
544,561	0,3934
544,76	0,39407
544,959	0,39507
545,158	0,39576
545,356	0,39665
545,555	0,39733
545,754	0,39801
545,953	0,39863
546,151	0,39921
546,35	0,39971
546,549	0,40027
546,748	0,40069
546,946	0,40106
547,145	0,40153
547,344	0,4019
547,542	0,40215
547,741	0,40284
547,939	0,40295
548,138	0,4033
548,337	0,40371
548,535	0,40412
548,734	0,40425
548,932	0,40454
549,131	0,40495
549,329	0,4053
549,528	0,4058
549,726	0,40627
549,925	0,40646
550,123	0,40691
550,322	0,40731
550,52	0,4079
550,718	0,40835
550,917	0,40903
551,115	0,40952
551,313	0,41011
551,512	0,41066
551,71	0,41102
551,908	0,41166
552,107	0,41212
552,305	0,41265
552,503	0,41305
552,702	0,41345
552,9	0,41393
553,098	0,41442
553,296	0,41494
553,495	0,4154
553,693	0,41574
553,891	0,41622
554,089	0,41633
554,287	0,4168
554,485	0,4172
554,683	0,41755
554,882	0,41794
555,08	0,41826
555,278	0,41878
555,476	0,41922
555,674	0,41955
555,872	0,42008
556,07	0,4205
556,268	0,42134
556,466	0,42162
556,664	0,42218
556,862	0,42275
557,06	0,4234
557,258	0,424
557,456	0,42456
557,654	0,42518
557,851	0,42557
558,049	0,42592
558,247	0,42644
558,445	0,42691
558,643	0,42748
558,841	0,42787
559,039	0,42843
559,236	0,42895
559,434	0,42942
559,632	0,42974
559,83	0,43012
560,027	0,43092
560,225	0,43164
560,423	0,43233
560,62	0,43283
560,818	0,43336
561,016	0,43433
561,213	0,43515
561,411	0,43578
561,609	0,43659
561,806	0,43721
562,004	0,43777
562,202	0,43827
562,399	0,43906
562,597	0,4396
562,794	0,44026
562,992	0,44099
563,189	0,4415
563,387	0,4423
563,584	0,4431
563,782	0,44376
563,979	0,44457
564,177	0,44567
564,374	0,44675
564,571	0,44749
564,769	0,44847
564,966	0,44931
565,164	0,45026
565,361	0,45096
565,558	0,4518
565,756	0,45247
565,953	0,45332
566,15	0,45425
566,347	0,45516
566,545	0,45599
566,742	0,45688
566,939	0,45781
567,136	0,4588
567,334	0,45975
567,531	0,46077
567,728	0,46175
567,925	0,46295
568,122	0,46407
568,319	0,46522
568,517	0,46594
568,714	0,4671
568,911	0,46807
569,108	0,46909
569,305	0,47045
569,502	0,47167
569,699	0,47298
569,896	0,474
570,093	0,47514
570,29	0,47642
570,487	0,47727
570,684	0,47871
570,881	0,47968
571,078	0,48097
571,275	0,48199
571,472	0,4831
571,669	0,48415
571,866	0,48525
572,062	0,48634
572,259	0,48758
572,456	0,48857
572,653	0,49008
572,85	0,49133
573,047	0,49257
573,243	0,49382
573,44	0,49524
573,637	0,49632
573,834	0,4975
574,03	0,49885
574,227	0,50029
574,424	0,50157
574,62	0,50295
574,817	0,50427
575,014	0,50554
575,21	0,50702
575,407	0,50849
575,604	0,50969
575,8	0,51126
575,997	0,51287
576,193	0,51434
576,39	0,5159
576,586	0,51715
576,783	0,51854
576,979	0,51993
577,176	0,5213
577,372	0,52264
577,569	0,52398
577,765	0,52551
577,962	0,52671
578,158	0,52792
578,355	0,52905
578,551	0,53036
578,747	0,53172
578,944	0,53308
579,14	0,53431
579,336	0,53595
579,533	0,5373
579,729	0,53858
579,925	0,53995
580,122	0,54136
580,318	0,54262
580,514	0,54385
580,71	0,54495
580,906	0,5463
581,103	0,54772
581,299	0,549
581,495	0,54992
581,691	0,55098
581,887	0,55221
582,084	0,55338
582,28	0,55446
582,476	0,5556
582,672	0,55683
582,868	0,55792
583,064	0,55877
583,26	0,55954
583,456	0,56057
583,652	0,56159
583,848	0,56271
584,044	0,56344
584,24	0,56424
584,436	0,56514
584,632	0,56575
584,828	0,5664
585,024	0,56728
585,22	0,56842
585,416	0,56933
585,611	0,57013
585,807	0,57051
586,003	0,57113
586,199	0,572
586,395	0,57264
586,591	0,57322
586,786	0,57408
586,982	0,57465
587,178	0,57505
587,374	0,57526
587,569	0,57542
587,765	0,5756
587,961	0,57622
588,156	0,57629
588,352	0,5762
588,548	0,57632
588,743	0,57631
588,939	0,57621
589,135	0,57624
589,33	0,57616
589,526	0,576
589,721	0,57596
589,917	0,57568
590,112	0,57533
590,308	0,5752
590,503	0,57487
590,699	0,57439
590,894	0,57412
591,09	0,5739
591,285	0,57355
591,481	0,57325
591,676	0,57285
591,872	0,57215
592,067	0,57153
592,262	0,5711
592,458	0,57052
592,653	0,57003
592,848	0,56954
593,044	0,56873
593,239	0,56771
593,434	0,56675
593,629	0,56564
593,825	0,56449
594,02	0,56363
594,215	0,56263
594,41	0,56131
594,606	0,5599
594,801	0,55861
594,996	0,55738
595,191	0,55602
595,386	0,5549
595,581	0,55364
595,777	0,55239
595,972	0,55087
596,167	0,54942
596,362	0,54782
596,557	0,54617
596,752	0,54455
596,947	0,54284
597,142	0,5409
597,337	0,5391
597,532	0,53712
597,727	0,53509
597,922	0,53294
598,117	0,53106
598,312	0,52877
598,507	0,52668
598,701	0,52448
598,896	0,52228
599,091	0,52016
599,286	0,51795
599,481	0,5156
599,676	0,51328
599,87	0,51095
600,065	0,50852
600,26	0,50627
600,455	0,50399
600,65	0,50152
600,844	0,49881
601,039	0,49631
601,234	0,49359
601,428	0,49092
601,623	0,48835
601,818	0,48573
602,012	0,48308
602,207	0,48042
602,402	0,47753
602,596	0,4745
602,791	0,4717
602,985	0,46929
603,18	0,46655
603,374	0,46364
603,569	0,46072
603,763	0,45787
603,958	0,45486
604,152	0,45179
604,347	0,44872
604,541	0,44564
604,736	0,44263
604,93	0,4395
605,125	0,43613
605,319	0,43283
605,513	0,42972
605,708	0,42675
605,902	0,42356
606,096	0,42036
606,291	0,41732
606,485	0,41409
606,679	0,41103
606,874	0,40791
607,068	0,40474
607,262	0,40171
607,456	0,39871
607,65	0,39546
607,845	0,39228
608,039	0,38913
608,233	0,38595
608,427	0,38268
608,621	0,37964
608,815	0,37641
609,01	0,37331
609,204	0,37012
609,398	0,36711
609,592	0,36387
609,786	0,3609
609,98	0,35767
610,174	0,35446
610,368	0,35145
610,562	0,34831
610,756	0,34495
610,95	0,34173
611,144	0,33865
611,338	0,33563
611,532	0,33239
611,726	0,32931
611,919	0,32606
612,113	0,32302
612,307	0,31985
612,501	0,31647
612,695	0,31341
612,889	0,31045
613,082	0,30736
613,276	0,30408
613,47	0,30092
613,664	0,29766
613,857	0,29434
614,051	0,29132
614,245	0,2881
614,439	0,28483
614,632	0,28197
614,826	0,27892
615,02	0,27579
615,213	0,27297
615,407	0,27017
615,6	0,26722
615,794	0,26422
615,988	0,26135
616,181	0,25838
616,375	0,25542
616,568	0,25264
616,762	0,24972
616,955	0,24689
617,149	0,24416
617,342	0,2411
617,536	0,2383
617,729	0,2355
617,923	0,23298
618,116	0,23038
618,309	0,22781
618,503	0,22523
618,696	0,22271
618,889	0,2202
619,083	0,21751
619,276	0,21494
619,469	0,21235
619,663	0,20979
619,856	0,20734
620,049	0,20475
620,242	0,2023
620,436	0,19974
620,629	0,19738
620,822	0,19487
621,015	0,19224
621,209	0,18999
621,402	0,18757
621,595	0,18541
621,788	0,18316
621,981	0,18089
622,174	0,17861
622,367	0,1764
622,56	0,17405
622,753	0,17185
622,946	0,1699
623,139	0,16779
623,332	0,16562
623,525	0,16349
623,718	0,16143
623,911	0,15937
624,104	0,15727
624,297	0,15522
624,49	0,15318
624,683	0,15136
624,876	0,14938
625,069	0,14729
625,262	0,14555
625,454	0,14356
625,647	0,1418
625,84	0,13978
626,033	0,13793
626,226	0,13615
626,418	0,13438
626,611	0,13266
626,804	0,1308
626,997	0,12885
627,189	0,12716
627,382	0,1254
627,575	0,12376
627,767	0,12202
627,96	0,12033
628,153	0,11863
628,345	0,11704
628,538	0,11547
628,731	0,11388
628,923	0,11232
629,116	0,11099
629,308	0,10938
629,501	0,10777
629,693	0,10636
629,886	0,10496
630,078	0,10348
630,271	0,10213
630,463	0,1007
630,656	0,09926
630,848	0,09781
631,04	0,09645
631,233	0,09511
631,425	0,09372
631,617	0,09245
631,81	0,0911
632,002	0,0898
632,194	0,08861
632,387	0,0873
632,579	0,08595
632,771	0,08472
632,964	0,08359
633,156	0,08239
633,348	0,08109
633,54	0,08006
633,732	0,07892
633,925	0,07778
634,117	0,07676
634,309	0,07567
634,501	0,07458
634,693	0,07344
634,885	0,07242
635,077	0,07131
635,269	0,07025
635,462	0,06936
635,654	0,06829
635,846	0,06745
636,038	0,06645
636,23	0,06546
636,422	0,06458
636,614	0,06363
636,806	0,06288
636,997	0,06195
637,189	0,06116
637,381	0,0602
637,573	0,05928
637,765	0,05852
637,957	0,05749
638,149	0,0567
638,341	0,05585
638,532	0,05499
638,724	0,05422
638,916	0,05342
639,108	0,05265
639,299	0,05184
639,491	0,05117
639,683	0,05058
639,875	0,04984
640,066	0,04927
640,258	0,04842
640,45	0,04768
640,641	0,04707
640,833	0,04643
641,025	0,04575
641,216	0,04501
641,408	0,04436
641,599	0,04376
641,791	0,04304
641,982	0,0423
642,174	0,04163
642,366	0,0412
642,557	0,04064
642,748	0,03988
642,94	0,03922
643,131	0,03864
643,323	0,03813
643,514	0,03756
643,706	0,03697
643,897	0,03642
644,088	0,03597
644,28	0,03542
644,471	0,0348
644,662	0,03432
644,854	0,03399
645,045	0,03353
645,236	0,033
645,428	0,03257
645,619	0,03219
645,81	0,03179
646,001	0,03117
646,193	0,03075
646,384	0,03018
646,575	0,02978
646,766	0,02928
646,957	0,02867
647,148	0,02825
647,339	0,02792
647,531	0,02754
647,722	0,02702
647,913	0,02658
648,104	0,02631
648,295	0,02583
648,486	0,02553
648,677	0,02503
648,868	0,02468
649,059	0,02438
649,25	0,02398
649,441	0,02356
649,632	0,0231
649,823	0,02276
650,013	0,02245
650,204	0,02207
650,395	0,0217
650,586	0,0215
650,777	0,02128
650,968	0,02092
651,159	0,02072
651,349	0,02037
651,54	0,0201
651,731	0,01979
651,922	0,01949
652,112	0,0192
652,303	0,01899
652,494	0,01876
652,684	0,01843
652,875	0,01819
653,066	0,01799
653,256	0,01769
653,447	0,01752
653,638	0,01722
653,828	0,01704
654,019	0,01685
654,209	0,0166
654,4	0,01638
654,59	0,01626
654,781	0,016
654,972	0,01574
655,162	0,01558
655,352	0,0154
655,543	0,01505
655,733	0,01483
655,924	0,01471
656,114	0,01443
656,305	0,01426
656,495	0,01408
656,685	0,01386
656,876	0,01376
657,066	0,01351
657,256	0,01331
657,447	0,01316
657,637	0,01309
657,827	0,01298
658,017	0,01275
658,208	0,0126
658,398	0,01235
658,588	0,01212
658,778	0,0119
658,968	0,01161
659,159	0,01152
659,349	0,01137
659,539	0,01116
659,729	0,01094
659,919	0,0107
660,109	0,01052
660,299	0,01046
660,489	0,01041
660,679	0,01028
660,869	0,01005
661,059	0,01008
661,249	0,00986
661,439	0,0096
661,629	0,00939
661,819	0,00932
662,009	0,00928
662,199	0,00919
662,389	0,00891
662,579	0,00874
662,769	0,00858
662,959	0,00851
663,149	0,00833
663,338	0,00832
663,528	0,00829
663,718	0,00826
663,908	0,00801
664,097	0,00786
664,287	0,00769
664,477	0,00773
664,667	0,00755
664,856	0,00751
665,046	0,00743
665,236	0,00732
665,425	0,00722
665,615	0,00709
665,805	0,00691
665,994	0,00704
666,184	0,00696
666,373	0,00688
666,563	0,00674
666,753	0,00679
666,942	0,00663
667,132	0,00645
667,321	0,00635
667,511	0,00628
667,7	0,00617
667,889	0,006
668,079	0,00586
668,268	0,00581
668,458	0,00571
668,647	0,00568
668,836	0,00546
669,026	0,00541
669,215	0,00533
669,404	0,00534
669,594	0,00521
669,783	0,00517
669,972	0,00527
670,162	0,00518
670,351	0,00508
670,54	0,00501
670,729	0,00478
670,919	0,00479
671,108	0,00475
671,297	0,00474
671,486	0,00463
671,675	0,00464
671,864	0,00461
672,053	0,00455
672,243	0,00445
672,432	0,00435
672,621	0,00433
672,81	0,00427
672,999	0,0042
673,188	0,0042
673,377	0,00402
673,566	0,00394
673,755	0,00379
673,944	0,00365
674,133	0,00345
674,322	0,0035
674,51	0,00361
674,699	0,00348
674,888	0,00351
675,077	0,00347
675,266	0,00332
675,455	0,00342
675,644	0,0033
675,832	0,00323
676,021	0,00324
676,21	0,00334
676,399	0,00321
676,587	0,00302
676,776	0,00294
676,965	0,00295
677,153	0,00288
677,342	0,00293
677,531	0,00284
677,719	0,00284
677,908	0,00282
678,097	0,00281
678,285	0,0028
678,474	0,00276
678,662	0,00281
678,851	0,00288
679,039	0,00276
679,228	0,0028
679,416	0,00276
679,605	0,00275
679,793	0,00276
679,982	0,00275
680,17	0,00272
680,359	0,00268
680,547	0,00272
680,736	0,0027
680,924	0,00274
681,112	0,00272
681,301	0,00268
681,489	0,00264
681,677	0,0026
681,866	0,00252
682,054	0,00249
682,242	0,00241
682,43	0,00233
682,619	0,00212
682,807	0,00197
682,995	0,0018
683,183	0,00176
683,371	0,00175
683,559	0,0017
683,748	0,00166
683,936	0,00163
684,124	0,00167
684,312	0,00162
684,5	0,00152
684,688	0,00169
684,876	0,00167
685,064	0,00171
685,252	0,00173
685,44	0,00162
685,628	0,00148
685,816	0,0015
686,004	0,00147
686,192	0,00135
686,38	0,00131
686,568	0,00133
686,756	0,00111
686,944	0,00118
687,131	0,00118
687,319	0,00116
687,507	0,00114
687,695	0,00117
687,883	0,00116
688,07	0,00116
688,258	0,00125
688,446	0,00129
688,634	0,00135
688,821	0,00146
689,009	0,00135
689,197	0,00138
689,384	0,00136
689,572	0,00135
689,76	0,00135
689,947	0,00132
690,135	0,00134
690,323	0,00126
690,51	0,00125
690,698	0,00125
690,885	0,00126
691,073	0,00122
691,26	0,00114
691,448	0,00117
691,635	0,00121
691,823	0,00117
692,01	0,00108
692,197	0,00101
692,385	0,00105
692,572	0,00108
692,76	0,00097
692,947	0,00094
693,134	0,0011
693,322	0,00104
693,509	0,00092
693,696	0,00081
693,884	0,00081
694,071	0,0009
694,258	0,00086
694,445	0,00078
694,633	0,00069
694,82	0,00057
695,007	0,00054
695,194	0,00047
695,381	0,00051
695,568	0,00047
695,756	0,00048
695,943	0,00039
696,13	0,00025
696,317	0,00026
696,504	0,0002
696,691	0,0002
696,878	0,00034
697,065	0,00012
697,252	0,0001
697,439	0,00009
697,626	0,00016
697,813	0,00018
698	0,00018
698,187	0,00013
698,374	0,00014
698,561	0,00015
698,747	0,00018
698,934	0,00012
699,121	0,00034
699,308	0,00018
699,495	0,00014
699,682	0,00012
699,868	-0,00005
700,055	-0,00001
700,242	0,00005
700,429	-0,00004
700,615	-0,00014
700,802	-0,00024
700,989	-0,00026
701,175	-0,00038
701,362	-0,00028
701,549	-0,00021
701,735	-0,00022
701,922	-0,0001
702,108	-0,00003
702,295	0,00001
702,482	-0,00001
702,668	0,00016
702,855	0,00011
703,041	0,00013
703,228	0,00015
703,414	0,00012
703,601	-0,00001
703,787	-0,00001
703,973	-0,00004
704,16	-0,00022
704,346	-0,00021
704,533	-0,00022
704,719	-0,00032
704,905	-0,00034
705,092	-0,0004
705,278	-0,00037
705,464	-0,00026
705,65	-0,00025
705,837	-0,00026
706,023	-0,00021
706,209	-0,00008
706,395	-0,00022
706,582	-0,00017
706,768	-0,00014
706,954	-0,00007
707,14	-0,00009
707,326	-0,00019
707,512	-0,00032
707,698	-0,00022
707,885	-0,0003
708,071	-0,00038
708,257	-0,00046
708,443	-0,00041
708,629	-0,00033
708,815	-0,0003
709,001	-0,0004
709,187	-0,00042
709,373	-0,00039
709,559	-0,0004
709,745	-0,00048
709,93	-0,00054
710,116	-0,00049
710,302	-0,00047
710,488	-0,00036
710,674	-0,00044
710,86	-0,00047
711,046	-0,00033
711,231	-0,00034
711,417	-0,0003
711,603	-0,00029
711,789	-0,00032
711,974	-0,00026
712,16	-0,00036
712,346	-0,00044
712,532	-0,00053
712,717	-0,00059
712,903	-0,00067
713,089	-0,00069
713,274	-0,00064
713,46	-0,00073
713,645	-0,00077
713,831	-0,00077
714,016	-0,00082
714,202	-0,00077
714,388	-0,00055
714,573	-0,00061
714,759	-0,00049
714,944	-0,00047
715,129	-0,00058
715,315	-0,00059
715,5	-0,00056
715,686	-0,00055
715,871	-0,00056
716,057	-0,00057
716,242	-0,00046
716,427	-0,0006
716,613	-0,00059
716,798	-0,00073
716,983	-0,00082
717,168	-0,00079
717,354	-0,00073
717,539	-0,00073
717,724	-0,00067
717,909	-0,00066
718,095	-0,00064
718,28	-0,00081
718,465	-0,00086
718,65	-0,00079
718,835	-0,00082
719,02	-0,00075
719,206	-0,00075
719,391	-0,00076
719,576	-0,00085
719,761	-0,00086
719,946	-0,00085
720,131	-0,00082
720,316	-0,00074
720,501	-0,00071
720,686	-0,00063
720,871	-0,00055
721,056	-0,00053
721,241	-0,00062
721,426	-0,00067
721,61	-0,00059
721,795	-0,0006
721,98	-0,00063
722,165	-0,00065
722,35	-0,00054
722,535	-0,00058
722,719	-0,00062
722,904	-0,00063
723,089	-0,00072
723,274	-0,00062
723,458	-0,00065
723,643	-0,00062
723,828	-0,00068
724,013	-0,00068
724,197	-0,00073
724,382	-0,00086
724,567	-0,00081
724,751	-0,00089
724,936	-0,00086
725,12	-0,00085
725,305	-0,00083
725,489	-0,00077
725,674	-0,00085
725,859	-0,0008
726,043	-0,00082
726,228	-0,00075
726,412	-0,00069
726,596	-0,00078
726,781	-0,00079
726,965	-0,00085
727,15	-0,00077
727,334	-0,00083
727,518	-0,00096
727,703	-0,0009
727,887	-0,00098
728,072	-0,0009
728,256	-0,00092
728,44	-0,00097
728,624	-0,00091
728,809	-0,00099
728,993	-0,00099
729,177	-0,00108
729,361	-0,00103
729,546	-0,001
729,73	-0,00102
729,914	-0,00115
730,098	-0,00126
730,282	-0,00135
730,466	-0,00136
730,65	-0,00137
730,834	-0,00131
731,019	-0,00139
731,203	-0,0014
731,387	-0,00146
731,571	-0,0015
731,755	-0,00149
731,939	-0,00139
732,123	-0,00151
732,306	-0,00142
732,49	-0,00145
732,674	-0,00143
732,858	-0,0015
733,042	-0,00142
733,226	-0,00131
733,41	-0,00129
733,594	-0,00123
733,778	-0,00122
733,961	-0,00115
734,145	-0,00104
734,329	-0,00093
734,513	-0,00082
734,696	-0,00086
734,88	-0,00074
735,064	-0,00078
735,247	-0,00094
735,431	-0,00092
735,615	-0,00093
735,798	-0,00097
735,982	-0,00096
736,166	-0,00094
736,349	-0,00103
736,533	-0,00106
736,716	-0,0011
736,9	-0,00117
737,083	-0,0012
737,267	-0,00114
737,45	-0,00125
737,634	-0,00125
737,817	-0,00125
738,001	-0,0013
738,184	-0,00129
738,368	-0,00131
738,551	-0,00144
738,734	-0,00141
738,918	-0,00143
739,101	-0,00127
739,284	-0,00127
739,468	-0,00122
739,651	-0,00118
739,834	-0,00117
740,018	-0,00124
740,201	-0,00134
740,384	-0,00135
740,567	-0,00132
740,75	-0,00131
740,934	-0,00129
741,117	-0,00142
741,3	-0,00138
741,483	-0,0014
741,666	-0,0015
741,849	-0,00148
742,032	-0,00151
742,215	-0,00144
742,399	-0,00143
742,582	-0,00144
742,765	-0,00148
742,948	-0,00138
743,131	-0,00139
743,314	-0,00144
743,496	-0,00146
743,679	-0,00138
743,862	-0,00138
744,045	-0,00126
744,228	-0,00136
744,411	-0,00138
744,594	-0,00134
744,777	-0,0012
744,959	-0,00122
745,142	-0,0011
745,325	-0,00105
745,508	-0,00112
745,691	-0,00112
745,873	-0,00117
746,056	-0,00122
746,239	-0,00116
746,421	-0,00109
746,604	-0,00114
746,787	-0,00127
746,969	-0,00134
747,152	-0,00149
747,335	-0,0015
747,517	-0,00138
747,7	-0,00141
747,882	-0,00133
748,065	-0,00141
748,247	-0,00133
748,43	-0,00145
748,612	-0,00147
748,795	-0,0014
748,977	-0,0014
749,16	-0,00141
749,342	-0,00138
749,524	-0,00147
749,707	-0,00147
749,889	-0,00143
750,072	-0,00144
750,254	-0,00153
750,436	-0,00148
750,619	-0,00137
750,801	-0,00149
750,983	-0,00154
751,165	-0,00145
751,348	-0,00146
751,53	-0,00148
751,712	-0,00139
751,894	-0,00154
752,076	-0,00137
752,259	-0,00134
752,441	-0,00142
752,623	-0,00148
752,805	-0,00153
752,987	-0,00154
753,169	-0,00156
753,351	-0,00165
753,533	-0,00164
753,715	-0,00175
753,897	-0,0018
754,079	-0,00189
754,261	-0,0019
754,443	-0,0018
754,625	-0,00177
754,807	-0,00169
754,989	-0,00157
755,171	-0,0016
755,353	-0,00152
755,534	-0,00154
755,716	-0,00158
755,898	-0,00151
756,08	-0,00154
756,262	-0,00158
756,443	-0,00175
756,625	-0,00175
756,807	-0,00182
756,989	-0,00196
757,17	-0,00197
757,352	-0,00193
757,534	-0,00186
757,715	-0,00181
757,897	-0,00187
758,079	-0,00183
758,26	-0,0018
758,442	-0,00161
758,623	-0,00174
758,805	-0,00171
758,987	-0,00181
759,168	-0,00188
759,35	-0,00197
759,531	-0,00193
759,713	-0,00198
759,894	-0,00194
760,075	-0,00194
760,257	-0,00198
760,438	-0,002
760,62	-0,00199
760,801	-0,00199
760,982	-0,00191
761,164	-0,00198
761,345	-0,00194
761,526	-0,00205
761,708	-0,00205
761,889	-0,00202
762,07	-0,00208
762,251	-0,002
762,433	-0,0021
762,614	-0,00205
762,795	-0,00201
762,976	-0,00202
763,157	-0,00186
763,338	-0,00201
763,52	-0,00195
763,701	-0,00198
763,882	-0,00202
764,063	-0,00196
764,244	-0,00195
764,425	-0,00191
764,606	-0,00194
764,787	-0,00193
764,968	-0,00194
765,149	-0,00211
765,33	-0,00203
765,511	-0,00206
765,692	-0,00207
765,873	-0,00211
766,053	-0,00218
766,234	-0,00226
766,415	-0,00225
766,596	-0,00231
766,777	-0,00237
766,958	-0,00239
767,138	-0,0022
767,319	-0,00227
767,5	-0,00229
767,681	-0,00238
767,861	-0,00227
768,042	-0,00226
768,223	-0,00228
768,403	-0,00231
768,584	-0,00222
768,765	-0,0022
768,945	-0,00222
769,126	-0,00221
769,307	-0,00204
769,487	-0,00199
769,668	-0,0019
769,848	-0,00195
770,029	-0,00193
770,209	-0,00195
770,39	-0,00201
770,57	-0,00204
770,751	-0,00204
770,931	-0,00197
771,111	-0,00213
771,292	-0,0022
771,472	-0,00225
771,653	-0,00226
771,833	-0,00225
772,013	-0,00231
772,194	-0,00216
772,374	-0,00217
772,554	-0,00218
772,734	-0,00218
772,915	-0,00215
773,095	-0,00208
773,275	-0,00205
773,455	-0,00202
773,635	-0,00215
773,816	-0,00217
773,996	-0,00199
774,176	-0,00202
774,356	-0,00198
774,536	-0,00207
774,716	-0,00212
774,896	-0,00219
775,076	-0,00231
775,256	-0,00231
775,436	-0,00228
775,616	-0,00206
775,796	-0,00201
775,976	-0,00214
776,156	-0,0022
776,336	-0,00216
776,516	-0,0021
776,696	-0,00209
776,876	-0,00205
777,056	-0,00202
777,235	-0,00203
777,415	-0,00205
777,595	-0,00216
777,775	-0,00216
777,955	-0,00223
778,134	-0,00231
778,314	-0,00223
778,494	-0,00223
778,674	-0,00215
778,853	-0,00219
779,033	-0,00211
779,213	-0,00219
779,392	-0,00224
779,572	-0,00222
779,751	-0,00233
779,931	-0,00225
780,111	-0,00224
780,29	-0,00249
780,47	-0,00243
780,649	-0,0026
780,829	-0,00248
781,008	-0,00243
781,188	-0,00236
781,367	-0,00225
781,546	-0,00221
781,726	-0,00218
781,905	-0,00224
782,085	-0,00222
782,264	-0,00209
782,443	-0,00199
782,623	-0,00194
782,802	-0,00207
782,981	-0,00214
783,161	-0,00223
783,34	-0,0023
783,519	-0,00231
783,698	-0,00232
783,878	-0,00226
784,057	-0,00222
784,236	-0,00217
784,415	-0,00228
784,594	-0,0022
784,773	-0,00218
784,952	-0,0021
785,132	-0,00214
785,311	-0,00206
785,49	-0,00219
785,669	-0,00215
785,848	-0,00214
786,027	-0,00222
786,206	-0,00223
786,385	-0,00229
786,564	-0,00232
786,743	-0,00235
786,922	-0,00234
787,1	-0,00234
787,279	-0,00246
787,458	-0,00237
787,637	-0,00236
787,816	-0,00237
787,995	-0,00232
788,174	-0,00235
788,352	-0,0022
788,531	-0,00222
788,71	-0,00221
788,889	-0,0023
789,067	-0,00228
789,246	-0,00225
789,425	-0,0022
789,603	-0,00223
789,782	-0,00227
789,961	-0,00217
790,139	-0,00218
790,318	-0,00232
790,496	-0,00226
790,675	-0,00217
790,853	-0,0022
791,032	-0,00227
791,211	-0,00232
791,389	-0,00234
791,568	-0,00221
791,746	-0,00205
791,924	-0,00212
792,103	-0,00209
792,281	-0,00204
792,46	-0,00201
792,638	-0,00196
792,816	-0,00188
792,995	-0,00172
793,173	-0,00166
793,351	-0,00167
793,53	-0,00173
793,708	-0,00181
793,886	-0,0018
794,064	-0,00177
794,243	-0,00162
794,421	-0,0017
794,599	-0,00172
794,777	-0,00184
794,955	-0,00199
795,133	-0,00204
795,312	-0,00209
795,49	-0,00219
795,668	-0,00221
795,846	-0,00225
796,024	-0,00227
796,202	-0,00246
796,38	-0,00256
796,558	-0,00271
796,736	-0,00272
796,914	-0,00262
797,092	-0,00264
797,27	-0,00259
797,448	-0,00259
797,626	-0,00264
797,803	-0,00269
797,981	-0,00274
798,159	-0,00269
798,337	-0,00269
798,515	-0,0027
798,693	-0,00267
798,87	-0,00278
799,048	-0,00282
799,226	-0,00289
799,404	-0,00281
799,581	-0,00292
799,759	-0,0029
799,937	-0,00301
800,114	-0,00314
800,292	-0,00311
800,469	-0,00308
800,647	-0,0031
800,825	-0,00304
801,002	-0,00301
801,18	-0,00299
801,357	-0,00303
801,535	-0,00289
801,712	-0,00293
801,89	-0,00283
802,067	-0,00283
802,245	-0,0028
802,422	-0,00279
802,6	-0,00278
802,777	-0,00277
802,954	-0,00279
803,132	-0,00278
803,309	-0,00281
803,486	-0,00289
803,664	-0,00288
803,841	-0,00277
804,018	-0,00271
804,195	-0,00272
804,373	-0,00288
804,55	-0,00271
804,727	-0,00268
804,904	-0,00266
805,081	-0,00263
805,259	-0,00272
805,436	-0,00286
805,613	-0,00288
805,79	-0,00301
805,967	-0,00309
806,144	-0,00316
806,321	-0,00309
806,498	-0,0032
806,675	-0,00328
806,852	-0,00329
807,029	-0,00332
807,206	-0,00333
807,383	-0,00308
807,56	-0,00297
807,737	-0,00296
807,914	-0,00294
808,091	-0,00278
808,268	-0,00254
808,444	-0,00253
808,621	-0,00259
808,798	-0,00286
808,975	-0,00281
809,152	-0,00288
809,328	-0,00293
809,505	-0,00308
809,682	-0,00315
809,858	-0,00314
810,035	-0,00325
810,212	-0,00364
810,388	-0,00371
810,565	-0,00356
810,742	-0,00339
810,918	-0,00348
811,095	-0,00335
811,271	-0,00334
811,448	-0,00328
811,625	-0,00327
811,801	-0,00323
811,978	-0,00316
812,154	-0,00302
812,33	-0,0029
812,507	-0,00279
812,683	-0,00272
812,86	-0,00257
813,036	-0,00257
813,212	-0,00258
813,389	-0,00267
813,565	-0,0027
813,741	-0,00264
813,918	-0,00271
814,094	-0,00252
814,27	-0,00264
814,447	-0,00262
814,623	-0,00262
814,799	-0,00267
814,975	-0,0026
815,151	-0,00261
815,328	-0,00256
815,504	-0,00239
815,68	-0,00252
815,856	-0,00239
816,032	-0,00229
816,208	-0,00219
816,384	-0,00242
816,56	-0,0024
816,736	-0,00255
816,912	-0,00259
817,088	-0,00263
817,264	-0,00257
817,44	-0,00268
817,616	-0,00265
817,792	-0,00276
817,968	-0,003
818,144	-0,00297
818,32	-0,00291
818,495	-0,00303
818,671	-0,0029
818,847	-0,0031
819,023	-0,00299
819,199	-0,00294
819,374	-0,00285
819,55	-0,00275
819,726	-0,00266
819,902	-0,00269
820,077	-0,00276
820,253	-0,00277
820,429	-0,00258
820,604	-0,00254
820,78	-0,00239
820,956	-0,00247
821,131	-0,00265
821,307	-0,00264
821,482	-0,00276
821,658	-0,00268
821,833	-0,00281
822,009	-0,00298
822,184	-0,00292
822,36	-0,0029
822,535	-0,00306
822,711	-0,00308
822,886	-0,00307
823,061	-0,00294
823,237	-0,003
823,412	-0,00283
823,587	-0,00301
823,763	-0,00293
823,938	-0,00272
824,113	-0,00282
824,289	-0,00286
824,464	-0,00277
824,639	-0,00268
824,814	-0,00269
824,99	-0,00272
825,165	-0,0027
825,34	-0,00272
825,515	-0,00261
825,69	-0,00245
825,865	-0,0024
826,04	-0,00234
826,215	-0,00226
826,39	-0,00209
826,566	-0,00212
826,741	-0,00214
826,916	-0,00194
827,091	-0,002
827,265	-0,00204
827,44	-0,00205
827,615	-0,00194
827,79	-0,00211
827,965	-0,00205
828,14	-0,00206
828,315	-0,00209
828,49	-0,00204
828,665	-0,00203
828,839	-0,0023
829,014	-0,00222
829,189	-0,0024
829,364	-0,00246
829,538	-0,00254
829,713	-0,00257
829,888	-0,00261
830,063	-0,00284
830,237	-0,00315
830,412	-0,00313
830,587	-0,00307
830,761	-0,00281
830,936	-0,00292
831,11	-0,00272
831,285	-0,00274
831,459	-0,00271
831,634	-0,00268
831,809	-0,00255
831,983	-0,00252
832,157	-0,00237
832,332	-0,00247
832,506	-0,00251
832,681	-0,00291
832,855	-0,00294
833,03	-0,00316
833,204	-0,00315
833,378	-0,00344
833,553	-0,00331
833,727	-0,00333
833,901	-0,00317
834,076	-0,00304
834,25	-0,00315
834,424	-0,00318
834,598	-0,0029
834,773	-0,00282
834,947	-0,00263
835,121	-0,00275
835,295	-0,00251
835,469	-0,0026
835,643	-0,00278
835,817	-0,00292
835,991	-0,0032
836,166	-0,0031
836,34	-0,00299
836,514	-0,00296
836,688	-0,0029
836,862	-0,00289
837,036	-0,00281
837,21	-0,00279
837,384	-0,00275
837,557	-0,00263
837,731	-0,00269
837,905	-0,00251
838,079	-0,00256
838,253	-0,00273
838,427	-0,00292
838,601	-0,00299
838,774	-0,00319
838,948	-0,0032
839,122	-0,00329
839,296	-0,00322
839,469	-0,00323
839,643	-0,00313
839,817	-0,0033
839,991	-0,00332
840,164	-0,0032
840,338	-0,00328
840,512	-0,00326
840,685	-0,00307
840,859	-0,00306
841,032	-0,00309
841,206	-0,0031
841,379	-0,0034
841,553	-0,00332
841,726	-0,00305
841,9	-0,00287
842,073	-0,00283
842,247	-0,00253
842,42	-0,0026
842,594	-0,00269
842,767	-0,00267
842,94	-0,00267
843,114	-0,00267
843,287	-0,00243
843,46	-0,00257
843,634	-0,00278
843,807	-0,00284
843,98	-0,00283
844,154	-0,00303
844,327	-0,00301
844,5	-0,00299
844,673	-0,00297
844,846	-0,00302
845,02	-0,00316
845,193	-0,00339
845,366	-0,00323
845,539	-0,00317
845,712	-0,00317
845,885	-0,00357
846,058	-0,00349
846,231	-0,00367
846,404	-0,00385
846,577	-0,00377
846,75	-0,00346
846,923	-0,00324
847,096	-0,00312
847,269	-0,00326
847,442	-0,00337
847,615	-0,00347
847,788	-0,00323
847,961	-0,00323
848,133	-0,00299
848,306	-0,00292
848,479	-0,00302
848,652	-0,00324
848,825	-0,00334
848,997	-0,0034
849,17	-0,00335
849,343	-0,00325
849,515	-0,00317
849,688	-0,00317
849,861	-0,00324
850,033	-0,00315
850,206	-0,00303
850,379	-0,00305
850,551	-0,00302
850,724	-0,00304
850,896	-0,00305
851,069	-0,00309
851,241	-0,00316
851,414	-0,00316
851,586	-0,00313
851,759	-0,00308
851,931	-0,00312
852,104	-0,00322
852,276	-0,00337
852,449	-0,00345
852,621	-0,00353
852,793	-0,0034
852,966	-0,00318
853,138	-0,003
853,31	-0,00282
853,483	-0,00278
853,655	-0,00285
853,827	-0,00324
853,999	-0,00317
854,172	-0,00314
854,344	-0,00315
854,516	-0,00302
854,688	-0,00316
854,86	-0,00346
855,032	-0,00357
855,204	-0,00383
855,377	-0,00391
855,549	-0,00387
855,721	-0,00366
855,893	-0,00377
856,065	-0,0038
856,237	-0,00388
856,409	-0,00405
856,581	-0,00403
856,753	-0,00368
856,924	-0,00359
857,096	-0,00337
857,268	-0,00323
857,44	-0,00324
857,612	-0,00319
857,784	-0,00323
857,956	-0,003
858,127	-0,00292
858,299	-0,0029
858,471	-0,00277
858,643	-0,00299
858,814	-0,00316
858,986	-0,00328
859,158	-0,00342
859,33	-0,00329
859,501	-0,0034
859,673	-0,00336
859,844	-0,00343
860,016	-0,00338
860,188	-0,0033
860,359	-0,00332
860,531	-0,00343
860,702	-0,00336
860,874	-0,00338
861,045	-0,00332
861,217	-0,00357
861,388	-0,00354
861,56	-0,00347
861,731	-0,00348
861,902	-0,00359
862,074	-0,00357
862,245	-0,00366
862,417	-0,00353
862,588	-0,00374
862,759	-0,00401
862,931	-0,00427
863,102	-0,0041
863,273	-0,00414
863,444	-0,00434
863,616	-0,00428
863,787	-0,0042
863,958	-0,00436
864,129	-0,0044
864,3	-0,00438
864,471	-0,00421
864,642	-0,00381
864,814	-0,00375
864,985	-0,00384
865,156	-0,00389
865,327	-0,00392
865,498	-0,00401
865,669	-0,00408
865,84	-0,00405
866,011	-0,00391
866,182	-0,004
866,353	-0,00402
866,523	-0,00431
866,694	-0,00414
866,865	-0,00404
867,036	-0,004
867,207	-0,00383
867,378	-0,00414
867,549	-0,00414
867,719	-0,00415
867,89	-0,00427
868,061	-0,00416
868,232	-0,00431
868,402	-0,00428
868,573	-0,00446
868,744	-0,00445
868,914	-0,00438
869,085	-0,00438
869,256	-0,00403
869,426	-0,00424
869,597	-0,00413
869,767	-0,00398
869,938	-0,00404
870,108	-0,00361
870,279	-0,00357
870,449	-0,00358
870,62	-0,00401
870,79	-0,00387
870,961	-0,00374
871,131	-0,00366
871,302	-0,00316
871,472	-0,00316
871,642	-0,00316
871,813	-0,00312
871,983	-0,00356
872,153	-0,00362
872,324	-0,00335
872,494	-0,003
872,664	-0,00335
872,835	-0,00314
873,005	-0,00306
873,175	-0,00332
873,345	-0,00319
873,515	-0,00353
873,685	-0,00373
873,856	-0,0036
874,026	-0,00364
874,196	-0,0038
874,366	-0,00372
874,536	-0,00358
874,706	-0,00404
874,876	-0,00431
875,046	-0,00452
875,216	-0,00481
875,386	-0,00425
875,556	-0,00376
875,726	-0,00373
875,896	-0,00386
876,066	-0,00374
876,236	-0,00404
876,405	-0,00407
876,575	-0,00388
876,745	-0,00371
876,915	-0,00319
877,085	-0,00286
877,254	-0,00298
877,424	-0,00322
877,594	-0,00319
877,764	-0,00313
877,933	-0,00321
878,103	-0,00295
878,273	-0,00258
878,442	-0,00262
878,612	-0,00273
878,781	-0,00305
878,951	-0,00322
879,121	-0,00356
879,29	-0,00371
879,46	-0,00362
879,629	-0,00343
879,799	-0,00337
879,968	-0,00315
880,138	-0,00327
880,307	-0,00304
880,476	-0,0029
880,646	-0,0031
880,815	-0,00324
880,985	-0,00319
881,154	-0,00313
881,323	-0,00324
881,493	-0,00319
881,662	-0,00344
881,831	-0,00382
882	-0,00397
882,17	-0,0041
882,339	-0,00445
882,508	-0,00422
882,677	-0,00387
882,846	-0,00363
883,016	-0,00378
883,185	-0,00388
883,354	-0,00386
883,523	-0,00382
883,692	-0,00356
883,861	-0,00357
884,03	-0,00395
884,199	-0,00365
884,368	-0,00318
884,537	-0,00354
884,706	-0,0036
884,875	-0,00337
885,044	-0,00325
885,213	-0,00319
885,382	-0,00331
885,55	-0,00356
885,719	-0,00363
885,888	-0,00348
886,057	-0,0037
886,226	-0,00434
886,395	-0,00388
886,563	-0,00433
886,732	-0,00434
886,901	-0,00429
887,069	-0,00449
887,238	-0,00438
887,407	-0,00438
887,575	-0,00422
887,744	-0,00408
887,913	-0,00428
888,081	-0,00444
888,25	-0,00465
888,418	-0,0046
888,587	-0,00516
888,755	-0,00521
888,924	-0,00503
889,092	-0,00478
889,261	-0,00492
889,429	-0,00505
889,598	-0,00505
889,766	-0,00484
889,935	-0,00459
890,103	-0,00495
890,271	-0,00493
890,44	-0,00445
890,608	-0,00479
890,776	-0,00466
890,944	-0,00482
891,113	-0,00456
891,281	-0,00454
891,449	-0,00474
891,617	-0,00494
891,786	-0,0049
891,954	-0,00483
892,122	-0,00432
892,29	-0,00435
892,458	-0,00416
892,626	-0,00432
892,794	-0,00433
892,962	-0,00438
893,13	-0,00432
893,298	-0,00403
893,466	-0,00355
