Data from Chemiepractica_Absorbance__32__11-45-53-154.txt Node

Date: Mon Dec 09 11:45:53 CET 2024
User: r0948668
Spectrometer: USB4F07138
Trigger mode: 4
Integration Time (sec): 6,000000E-3
Scans to average: 20
Electric dark correction enabled: true
Nonlinearity correction enabled: false
Boxcar width: 5
XAxis mode: Wavelengths
Number of Pixels in Spectrum: 3648
>>>>>Begin Spectral Data<<<<<
176,779	-0,1133
176,999	-0,74805
177,218	0,00464
177,438	-0
177,658	-0
177,878	-0
178,097	-0
178,317	0,61201
178,537	0,12167
178,757	0,07374
178,976	0,2622
179,196	2,04576
179,416	-0,30073
179,635	0,19716
179,855	0,07645
180,075	0,00426
180,294	-0,00055
180,514	-0,04656
180,734	0,02101
180,953	0,04301
181,173	0,03669
181,392	0,0155
181,612	0,02686
181,832	0,03411
182,051	0,0279
182,271	0,02126
182,49	0,01691
182,71	0,02613
182,929	0,03979
183,149	0,02229
183,368	0,02266
183,588	0,01662
183,807	0,02935
184,027	0,02959
184,246	0,03291
184,466	0,03514
184,685	0,03923
184,905	0,04142
185,124	0,03868
185,344	0,03842
185,563	0,04157
185,782	0,04179
186,002	0,04529
186,221	0,04045
186,44	0,04028
186,66	0,02721
186,879	0,04179
187,099	0,03763
187,318	0,04576
187,537	0,0371
187,756	0,04185
187,976	0,04068
188,195	0,03579
188,414	0,04319
188,634	0,05306
188,853	0,05866
189,072	0,06461
189,291	0,04447
189,511	0,0484
189,73	0,06459
189,949	0,07165
190,168	0,06577
190,387	0,07571
190,607	0,07765
190,826	0,05411
191,045	0,04531
191,264	0,04175
191,483	0,03811
191,702	0,05502
191,921	0,05238
192,141	0,041
192,36	0,03512
192,579	0,02906
192,798	0,03415
193,017	0,02249
193,236	0,04785
193,455	0,04617
193,674	0,04485
193,893	0,04887
194,112	0,04882
194,331	0,0399
194,55	0,04595
194,769	0,0444
194,988	0,03871
195,207	0,03139
195,426	0,04219
195,645	0,03337
195,864	0,03823
196,083	0,03326
196,302	0,02213
196,521	0,02035
196,739	0,01565
196,958	0,01059
197,177	0,02564
197,396	0,04224
197,615	0,04643
197,834	0,03973
198,053	0,03157
198,271	0,02009
198,49	0,03415
198,709	0,03307
198,928	0,03311
199,147	0,04034
199,365	0,0515
199,584	0,03718
199,803	0,02419
200,022	0,02842
200,24	0,02991
200,459	0,03164
200,678	0,037
200,897	0,02366
201,115	0,03314
201,334	0,03731
201,553	0,02958
201,771	0,00271
201,99	-0,00167
202,209	0,01981
202,427	0,01005
202,646	0,00956
202,864	0,01846
203,083	0,01652
203,302	0,03263
203,52	0,04513
203,739	0,03202
203,957	0,04443
204,176	0,06323
204,394	0,06998
204,613	0,06838
204,831	0,07415
205,05	0,0859
205,268	0,08902
205,487	0,09744
205,705	0,08524
205,924	0,07772
206,142	0,08826
206,361	0,08418
206,579	0,09338
206,798	0,089
207,016	0,07465
207,234	0,07072
207,453	0,06957
207,671	0,06955
207,89	0,06812
208,108	0,07546
208,326	0,06903
208,545	0,05393
208,763	0,0607
208,981	0,047
209,2	0,02812
209,418	0,0238
209,636	0,02394
209,855	0,01778
210,073	0,01386
210,291	0,00198
210,509	-0,00678
210,728	-0,00478
210,946	0,00345
211,164	0,00323
211,382	0,00607
211,6	0,03576
211,819	0,03896
212,037	0,03751
212,255	0,03442
212,473	0,02798
212,691	0,03778
212,909	0,05139
213,128	0,03898
213,346	0,04922
213,564	0,0438
213,782	0,04641
214	0,03655
214,218	0,04191
214,436	0,04538
214,654	0,04407
214,872	0,04491
215,09	0,02285
215,308	0,01717
215,526	0,02722
215,744	0,01374
215,962	0,01547
216,18	0,01318
216,398	0,02024
216,616	0,01876
216,834	0,01446
217,052	0,02382
217,27	0,02059
217,488	0,04138
217,706	0,03852
217,924	0,049
218,142	0,05167
218,36	0,06484
218,578	0,0668
218,795	0,05868
219,013	0,06361
219,231	0,0568
219,449	0,04782
219,667	0,04935
219,885	0,04826
220,102	0,05381
220,32	0,06137
220,538	0,07131
220,756	0,0524
220,973	0,05489
221,191	0,06811
221,409	0,05816
221,627	0,05844
221,844	0,06584
222,062	0,07046
222,28	0,06937
222,497	0,06024
222,715	0,04876
222,933	0,04103
223,15	0,04249
223,368	0,03307
223,586	0,03215
223,803	0,04666
224,021	0,04477
224,239	0,04631
224,456	0,04269
224,674	0,0566
224,891	0,06457
225,109	0,07277
225,326	0,06841
225,544	0,07333
225,762	0,08185
225,979	0,08113
226,197	0,07813
226,414	0,08139
226,632	0,07494
226,849	0,08381
227,066	0,08031
227,284	0,07264
227,501	0,06863
227,719	0,06921
227,936	0,06914
228,154	0,06823
228,371	0,06554
228,588	0,05825
228,806	0,06918
229,023	0,07612
229,241	0,0796
229,458	0,06288
229,675	0,06701
229,893	0,05849
230,11	0,06192
230,327	0,05974
230,545	0,06015
230,762	0,06131
230,979	0,0746
231,196	0,06587
231,414	0,05601
231,631	0,04825
231,848	0,04328
232,065	0,03611
232,283	0,03335
232,5	0,03032
232,717	0,03265
232,934	0,02077
233,151	0,02006
233,368	0,00695
233,586	0,00883
233,803	0,02119
234,02	0,03039
234,237	0,04049
234,454	0,04467
234,671	0,0603
234,888	0,06528
235,105	0,07149
235,322	0,09342
235,54	0,08544
235,757	0,09025
235,974	0,09957
236,191	0,08407
236,408	0,06733
236,625	0,06356
236,842	0,06559
237,059	0,05575
237,276	0,04899
237,493	0,04503
237,71	0,03062
237,926	0,02991
238,143	0,02601
238,36	0,01326
238,577	0,019
238,794	0,02726
239,011	0,03718
239,228	0,03169
239,445	0,02398
239,662	0,03212
239,878	0,03538
240,095	0,03984
240,312	0,04847
240,529	0,05858
240,746	0,06343
240,963	0,06798
241,179	0,07782
241,396	0,08005
241,613	0,07453
241,83	0,09068
242,046	0,0831
242,263	0,08403
242,48	0,08471
242,697	0,07773
242,913	0,07201
243,13	0,05801
243,347	0,06104
243,563	0,05484
243,78	0,05456
243,997	0,0614
244,213	0,0552
244,43	0,07208
244,646	0,07169
244,863	0,07127
245,08	0,06987
245,296	0,07119
245,513	0,07674
245,729	0,07759
245,946	0,0723
246,162	0,07078
246,379	0,07331
246,595	0,06617
246,812	0,05045
247,028	0,04544
247,245	0,04497
247,461	0,04681
247,678	0,03895
247,894	0,05171
248,111	0,0393
248,327	0,04352
248,544	0,04341
248,76	0,03723
248,976	0,04873
249,193	0,04741
249,409	0,05508
249,626	0,05564
249,842	0,06399
250,058	0,06339
250,275	0,06237
250,491	0,06318
250,707	0,06782
250,924	0,05981
251,14	0,06961
251,356	0,06163
251,572	0,06678
251,789	0,05522
252,005	0,05154
252,221	0,05144
252,437	0,05911
252,654	0,04799
252,87	0,04084
253,086	0,04023
253,302	0,03691
253,518	0,03233
253,735	0,03398
253,951	0,02811
254,167	0,02492
254,383	0,0133
254,599	0,00168
254,815	0,00022
255,031	0,00169
255,247	0,00316
255,463	0,00018
255,68	0,01751
255,896	0,01645
256,112	0,01225
256,328	0,0198
256,544	0,02909
256,76	0,0414
256,976	0,04254
257,192	0,04486
257,408	0,05061
257,624	0,05272
257,84	0,04956
258,056	0,03609
258,272	0,03444
258,487	0,02183
258,703	0,02546
258,919	0,03381
259,135	0,03321
259,351	0,03034
259,567	0,0302
259,783	0,02545
259,999	0,03166
260,215	0,03879
260,43	0,04037
260,646	0,04615
260,862	0,06531
261,078	0,05315
261,294	0,02794
261,509	0,03321
261,725	0,03774
261,941	0,0334
262,157	0,03623
262,372	0,04103
262,588	0,03488
262,804	0,0429
263,019	0,0451
263,235	0,04414
263,451	0,05721
263,667	0,06728
263,882	0,0784
264,098	0,08627
264,313	0,09111
264,529	0,09163
264,745	0,08941
264,96	0,09483
265,176	0,0877
265,391	0,08162
265,607	0,08959
265,823	0,08103
266,038	0,07821
266,254	0,06785
266,469	0,07421
266,685	0,06752
266,9	0,05438
267,116	0,05125
267,331	0,05413
267,547	0,05306
267,762	0,05892
267,978	0,05194
268,193	0,05694
268,408	0,05961
268,624	0,05833
268,839	0,04185
269,055	0,03803
269,27	0,04288
269,485	0,03266
269,701	0,03141
269,916	0,02697
270,132	0,02921
270,347	0,03185
270,562	0,03219
270,777	0,03349
270,993	0,03595
271,208	0,03784
271,423	0,05263
271,639	0,06429
271,854	0,07084
272,069	0,06335
272,284	0,06161
272,5	0,05212
272,715	0,04012
272,93	0,02745
273,145	0,02329
273,36	0,0246
273,576	0,0351
273,791	0,02485
274,006	0,01723
274,221	0,02289
274,436	0,03038
274,651	0,03712
274,866	0,04785
275,081	0,06112
275,296	0,07084
275,512	0,07904
275,727	0,08639
275,942	0,07125
276,157	0,07072
276,372	0,07216
276,587	0,07966
276,802	0,08051
277,017	0,07749
277,232	0,07314
277,447	0,07133
277,662	0,06208
277,877	0,05629
278,092	0,0471
278,306	0,05258
278,521	0,05825
278,736	0,05031
278,951	0,03622
279,166	0,01799
279,381	0,0147
279,596	0,01589
279,811	0,01601
280,025	0,00865
280,24	0,01183
280,455	0,00984
280,67	0,01253
280,885	0,00744
281,099	0,00198
281,314	0,00064
281,529	0,00579
281,744	0,0199
281,959	0,01775
282,173	0,02368
282,388	0,04583
282,603	0,0454
282,817	0,05009
283,032	0,05893
283,247	0,05827
283,461	0,06698
283,676	0,05618
283,891	0,06792
284,105	0,06402
284,32	0,05852
284,535	0,05629
284,749	0,05031
284,964	0,05811
285,178	0,04751
285,393	0,04762
285,607	0,04397
285,822	0,05707
286,036	0,08035
286,251	0,06934
286,465	0,07157
286,68	0,07925
286,894	0,07218
287,109	0,07429
287,323	0,0629
287,538	0,07063
287,752	0,05847
287,967	0,06989
288,181	0,05094
288,396	0,0575
288,61	0,07406
288,824	0,07868
289,039	0,06857
289,253	0,06088
289,467	0,05653
289,682	0,05696
289,896	0,05999
290,11	0,06567
290,325	0,06736
290,539	0,06372
290,753	0,06194
290,968	0,0379
291,182	0,03618
291,396	0,04579
291,61	0,05231
291,825	0,05476
292,039	0,06336
292,253	0,06159
292,467	0,05719
292,681	0,04795
292,896	0,04936
293,11	0,03396
293,324	0,05209
293,538	0,0503
293,752	0,05569
293,966	0,05899
294,18	0,05318
294,394	0,03915
294,608	0,04006
294,823	0,0382
295,037	0,04912
295,251	0,05974
295,465	0,06345
295,679	0,05344
295,893	0,05093
296,107	0,04298
296,321	0,04175
296,535	0,04021
296,749	0,03612
296,963	0,03218
297,177	0,02996
297,391	0,01616
297,604	0,00364
297,818	-0,00006
298,032	0,00091
298,246	-0,01305
298,46	-0,01274
298,674	-0,00664
298,888	-0,00157
299,102	0,01659
299,315	0,01681
299,529	0,02953
299,743	0,04009
299,957	0,05182
300,171	0,05823
300,385	0,07114
300,598	0,08392
300,812	0,08545
301,026	0,07487
301,24	0,08159
301,453	0,06944
301,667	0,07048
301,881	0,06451
302,094	0,05666
302,308	0,05535
302,522	0,05535
302,735	0,0405
302,949	0,03967
303,163	0,03742
303,376	0,04059
303,59	0,03972
303,803	0,03729
304,017	0,04122
304,231	0,04196
304,444	0,04557
304,658	0,04771
304,871	0,05021
305,085	0,05599
305,298	0,05546
305,512	0,04802
305,725	0,03895
305,939	0,0285
306,152	0,03277
306,366	0,02403
306,579	0,02751
306,793	0,02769
307,006	0,02897
307,22	0,02656
307,433	0,01717
307,646	0,01012
307,86	0,01468
308,073	0,01788
308,286	0,01368
308,5	0,01416
308,713	0,01116
308,926	0,0129
309,14	0,01045
309,353	0,00047
309,566	-0,00663
309,78	-0,00194
309,993	0,00096
310,206	-0,0018
310,419	0,0046
310,633	0,01456
310,846	0,02095
311,059	0,03363
311,272	0,02795
311,486	0,03164
311,699	0,03336
311,912	0,03947
312,125	0,04156
312,338	0,04863
312,551	0,04411
312,764	0,04707
312,978	0,05131
313,191	0,05467
313,404	0,0453
313,617	0,04384
313,83	0,04075
314,043	0,05059
314,256	0,05531
314,469	0,05442
314,682	0,05087
314,895	0,06569
315,108	0,06629
315,321	0,06155
315,534	0,05312
315,747	0,06025
315,96	0,06551
316,173	0,06672
316,386	0,0564
316,599	0,05231
316,812	0,05622
317,025	0,06165
317,237	0,05757
317,45	0,05043
317,663	0,05167
317,876	0,05255
318,089	0,05378
318,302	0,04213
318,515	0,04406
318,727	0,04537
318,94	0,04412
319,153	0,03793
319,366	0,03175
319,578	0,02654
319,791	0,03836
320,004	0,03509
320,217	0,03406
320,429	0,02789
320,642	0,04586
320,855	0,03927
321,067	0,03889
321,28	0,04067
321,493	0,04682
321,705	0,04024
321,918	0,04711
322,131	0,03792
322,343	0,03541
322,556	0,03969
322,768	0,03752
322,981	0,0217
323,194	0,01943
323,406	0,02364
323,619	0,02336
323,831	0,03341
324,044	0,04549
324,256	0,0442
324,469	0,04218
324,681	0,04802
324,894	0,04812
325,106	0,05504
325,319	0,05257
325,531	0,05973
325,743	0,05024
325,956	0,05113
326,168	0,04347
326,381	0,04164
326,593	0,03395
326,805	0,0385
327,018	0,03741
327,23	0,03288
327,442	0,03675
327,655	0,02819
327,867	0,02743
328,079	0,03317
328,292	0,02629
328,504	0,02591
328,716	0,0171
328,928	0,02579
329,141	0,02332
329,353	0,02101
329,565	0,01546
329,777	0,01114
329,99	0,02347
330,202	0,02518
330,414	0,02379
330,626	0,02618
330,838	0,02878
331,05	0,02957
331,263	0,03112
331,475	0,04091
331,687	0,03955
331,899	0,05495
332,111	0,05461
332,323	0,05821
332,535	0,0562
332,747	0,06426
332,959	0,06799
333,171	0,06822
333,383	0,07778
333,595	0,07463
333,807	0,06366
334,019	0,06335
334,231	0,05317
334,443	0,0477
334,655	0,04725
334,867	0,04692
335,079	0,03536
335,291	0,02309
335,503	0,02222
335,714	0,01412
335,926	0,01641
336,138	0,02007
336,35	0,01515
336,562	0,02314
336,774	0,02911
336,986	0,02778
337,197	0,03049
337,409	0,03508
337,621	0,03784
337,833	0,03079
338,044	0,03841
338,256	0,04051
338,468	0,04059
338,68	0,04003
338,891	0,02971
339,103	0,02389
339,315	0,01724
339,526	0,01602
339,738	0,00415
339,95	0,00981
340,161	0,02443
340,373	0,01098
340,585	0,00067
340,796	-0,00782
341,008	-0,00298
341,219	0,00575
341,431	0,01023
341,642	0,01469
341,854	0,01554
342,065	0,02999
342,277	0,02236
342,489	0,0114
342,7	0,0263
342,912	0,03455
343,123	0,04636
343,334	0,05177
343,546	0,04225
343,757	0,03962
343,969	0,03577
344,18	0,03607
344,392	0,03517
344,603	0,05231
344,814	0,05536
345,026	0,05628
345,237	0,05438
345,448	0,0494
345,66	0,04922
345,871	0,05525
346,082	0,06279
346,294	0,07068
346,505	0,06697
346,716	0,06886
346,927	0,06193
347,139	0,06198
347,35	0,05948
347,561	0,05135
347,772	0,04857
347,984	0,0488
348,195	0,05177
348,406	0,04394
348,617	0,04669
348,828	0,05007
349,039	0,04585
349,251	0,04682
349,462	0,05146
349,673	0,04892
349,884	0,05198
350,095	0,05222
350,306	0,04436
350,517	0,04564
350,728	0,04812
350,939	0,04082
351,15	0,03687
351,361	0,04047
351,572	0,04585
351,783	0,03949
351,994	0,03633
352,205	0,03738
352,416	0,04206
352,627	0,05408
352,838	0,0507
353,049	0,05995
353,26	0,06487
353,471	0,05565
353,682	0,05548
353,893	0,0447
354,103	0,04452
354,314	0,04607
354,525	0,04407
354,736	0,04862
354,947	0,0475
355,157	0,044
355,368	0,03229
355,579	0,0255
355,79	0,04058
356,001	0,03239
356,211	0,0408
356,422	0,03395
356,633	0,03954
356,843	0,045
357,054	0,03544
357,265	0,03429
357,476	0,03851
357,686	0,04618
357,897	0,05756
358,107	0,0459
358,318	0,05317
358,529	0,05096
358,739	0,0619
358,95	0,06034
359,16	0,06354
359,371	0,06636
359,582	0,05499
359,792	0,05602
360,003	0,05861
360,213	0,0442
360,424	0,05476
360,634	0,05364
360,845	0,05169
361,055	0,04903
361,266	0,04496
361,476	0,04927
361,686	0,04265
361,897	0,04943
362,107	0,04776
362,318	0,04057
362,528	0,04598
362,738	0,04234
362,949	0,0381
363,159	0,03552
363,369	0,035
363,58	0,03119
363,79	0,02574
364	0,02903
364,211	0,02574
364,421	0,01784
364,631	0,02613
364,842	0,02297
365,052	0,02117
365,262	0,02185
365,472	0,02625
365,682	0,02689
365,893	0,0294
366,103	0,02958
366,313	0,02853
366,523	0,0354
366,733	0,03892
366,943	0,03466
367,154	0,03804
367,364	0,0455
367,574	0,05341
367,784	0,05037
367,994	0,05053
368,204	0,05246
368,414	0,05121
368,624	0,0563
368,834	0,05389
369,044	0,05301
369,254	0,05008
369,464	0,05159
369,674	0,04431
369,884	0,03231
370,094	0,03397
370,304	0,02924
370,514	0,03115
370,724	0,0299
370,934	0,02335
371,144	0,01929
371,353	0,02498
371,563	0,02636
371,773	0,02475
371,983	0,02808
372,193	0,03318
372,403	0,03275
372,612	0,03563
372,822	0,03187
373,032	0,03166
373,242	0,03614
373,452	0,03827
373,661	0,03666
373,871	0,03305
374,081	0,0355
374,29	0,03667
374,5	0,03561
374,71	0,03247
374,92	0,03192
375,129	0,03432
375,339	0,03273
375,549	0,02948
375,758	0,02834
375,968	0,02638
376,177	0,02799
376,387	0,02144
376,597	0,02145
376,806	0,02726
377,016	0,03076
377,225	0,02979
377,435	0,02708
377,644	0,02606
377,854	0,02778
378,063	0,02861
378,273	0,03027
378,482	0,03169
378,692	0,03591
378,901	0,03262
379,111	0,0294
379,32	0,0313
379,529	0,03442
379,739	0,03605
379,948	0,03408
380,158	0,03702
380,367	0,04004
380,576	0,04096
380,786	0,0357
380,995	0,03778
381,204	0,04101
381,414	0,04014
381,623	0,03601
381,832	0,03796
382,041	0,03607
382,251	0,0406
382,46	0,03802
382,669	0,03401
382,878	0,03599
383,088	0,04116
383,297	0,03848
383,506	0,03698
383,715	0,03496
383,924	0,03459
384,133	0,03162
384,342	0,03277
384,552	0,03085
384,761	0,03427
384,97	0,0359
385,179	0,03447
385,388	0,03404
385,597	0,03165
385,806	0,03088
386,015	0,0309
386,224	0,03295
386,433	0,03149
386,642	0,03019
386,851	0,03032
387,06	0,02849
387,269	0,02978
387,478	0,02683
387,687	0,02535
387,896	0,02817
388,105	0,02745
388,314	0,02678
388,523	0,02528
388,731	0,02613
388,94	0,02934
389,149	0,02799
389,358	0,02756
389,567	0,02858
389,776	0,0297
389,984	0,02985
390,193	0,02969
390,402	0,02695
390,611	0,02932
390,819	0,02868
391,028	0,03002
391,237	0,02918
391,446	0,0291
391,654	0,02796
391,863	0,02601
392,072	0,02639
392,28	0,02544
392,489	0,02508
392,698	0,02589
392,906	0,02584
393,115	0,02658
393,324	0,02412
393,532	0,02274
393,741	0,02323
393,949	0,02244
394,158	0,02162
394,366	0,0179
394,575	0,01612
394,783	0,01415
394,992	0,01555
395,2	0,0114
395,409	0,01308
395,617	0,01129
395,826	0,0108
396,034	0,00894
396,243	0,00867
396,451	0,00806
396,66	0,01231
396,868	0,01372
397,076	0,01198
397,285	0,01033
397,493	0,01316
397,701	0,01284
397,91	0,01425
398,118	0,01479
398,326	0,01734
398,535	0,01442
398,743	0,01616
398,951	0,01549
399,159	0,01687
399,368	0,02171
399,576	0,02279
399,784	0,02441
399,992	0,02205
400,201	0,01939
400,409	0,01756
400,617	0,01714
400,825	0,02369
401,033	0,02308
401,241	0,02245
401,45	0,02324
401,658	0,02267
401,866	0,02492
402,074	0,02399
402,282	0,02419
402,49	0,02546
402,698	0,02855
402,906	0,02673
403,114	0,02461
403,322	0,02422
403,53	0,02358
403,738	0,02219
403,946	0,01967
404,154	0,01497
404,362	0,01513
404,57	0,01315
404,778	0,01311
404,986	0,01149
405,194	0,01226
405,402	0,01375
405,609	0,01228
405,817	0,01169
406,025	0,01303
406,233	0,01522
406,441	0,01966
406,649	0,01889
406,856	0,0205
407,064	0,02051
407,272	0,01993
407,48	0,02137
407,687	0,01987
407,895	0,02088
408,103	0,02196
408,311	0,02071
408,518	0,01913
408,726	0,0179
408,934	0,01875
409,141	0,01996
409,349	0,02031
409,557	0,02194
409,764	0,02008
409,972	0,01992
410,18	0,0173
410,387	0,01805
410,595	0,01702
410,802	0,01527
411,01	0,01321
411,217	0,01161
411,425	0,01125
411,632	0,01153
411,84	0,01104
412,047	0,01087
412,255	0,00977
412,462	0,01293
412,67	0,01064
412,877	0,0118
413,085	0,01301
413,292	0,01369
413,499	0,01541
413,707	0,01447
413,914	0,01496
414,122	0,01381
414,329	0,01465
414,536	0,01627
414,744	0,01671
414,951	0,01755
415,158	0,01788
415,366	0,01803
415,573	0,01904
415,78	0,01814
415,987	0,01785
416,195	0,01887
416,402	0,01823
416,609	0,01999
416,816	0,01809
417,023	0,01797
417,231	0,01869
417,438	0,01785
417,645	0,01712
417,852	0,01571
418,059	0,01602
418,266	0,01454
418,473	0,01423
418,68	0,0155
418,888	0,01341
419,095	0,01471
419,302	0,01401
419,509	0,01178
419,716	0,01295
419,923	0,01461
420,13	0,0148
420,337	0,01494
420,544	0,01691
420,751	0,01563
420,958	0,01612
421,165	0,01656
421,371	0,01382
421,578	0,01276
421,785	0,01351
421,992	0,01318
422,199	0,01401
422,406	0,01596
422,613	0,01515
422,82	0,01518
423,026	0,01472
423,233	0,01431
423,44	0,01297
423,647	0,01443
423,854	0,01559
424,06	0,01654
424,267	0,01481
424,474	0,01308
424,681	0,012
424,887	0,01331
425,094	0,01294
425,301	0,01573
425,507	0,01379
425,714	0,01528
425,921	0,0146
426,127	0,01357
426,334	0,01248
426,54	0,01307
426,747	0,01469
426,954	0,01325
427,16	0,01233
427,367	0,0115
427,573	0,00963
427,78	0,01019
427,986	0,00989
428,193	0,01083
428,399	0,01289
428,606	0,0132
428,812	0,01363
429,019	0,01265
429,225	0,01344
429,432	0,01452
429,638	0,01542
429,845	0,01471
430,051	0,01712
430,257	0,01631
430,464	0,01562
430,67	0,01502
430,876	0,01492
431,083	0,01573
431,289	0,01585
431,495	0,01623
431,702	0,01527
431,908	0,01474
432,114	0,01331
432,32	0,01131
432,527	0,01168
432,733	0,01136
432,939	0,0101
433,145	0,01086
433,351	0,01066
433,558	0,01127
433,764	0,01109
433,97	0,00997
434,176	0,0096
434,382	0,01206
434,588	0,01186
434,794	0,01128
435,001	0,013
435,207	0,01354
435,413	0,01271
435,619	0,01273
435,825	0,01166
436,031	0,01223
436,237	0,01356
436,443	0,01426
436,649	0,01464
436,855	0,01555
437,061	0,01645
437,267	0,0158
437,473	0,01518
437,679	0,01593
437,884	0,01517
438,09	0,01508
438,296	0,01435
438,502	0,01263
438,708	0,01262
438,914	0,01154
439,12	0,0109
439,325	0,01168
439,531	0,01221
439,737	0,01155
439,943	0,01078
440,149	0,01058
440,354	0,01188
440,56	0,01106
440,766	0,01096
440,972	0,0111
441,177	0,01136
441,383	0,0127
441,589	0,01246
441,794	0,01166
442	0,01343
442,206	0,01438
442,411	0,01502
442,617	0,01385
442,822	0,01559
443,028	0,01686
443,234	0,0179
443,439	0,0186
443,645	0,01726
443,85	0,01689
444,056	0,01732
444,261	0,01713
444,467	0,01674
444,672	0,01627
444,878	0,01738
445,083	0,01687
445,289	0,01681
445,494	0,01592
445,699	0,01503
445,905	0,01541
446,11	0,01562
446,316	0,01599
446,521	0,01577
446,726	0,01605
446,932	0,01616
447,137	0,01574
447,342	0,01583
447,548	0,01531
447,753	0,01549
447,958	0,01531
448,164	0,01482
448,369	0,01437
448,574	0,01358
448,779	0,01353
448,984	0,0133
449,19	0,01429
449,395	0,01386
449,6	0,01382
449,805	0,01459
450,01	0,01433
450,215	0,01442
450,421	0,01564
450,626	0,01656
450,831	0,01616
451,036	0,01609
451,241	0,01678
451,446	0,01507
451,651	0,01607
451,856	0,01565
452,061	0,01612
452,266	0,01656
452,471	0,01715
452,676	0,01742
452,881	0,01758
453,086	0,01908
453,291	0,01962
453,496	0,01873
453,701	0,02026
453,906	0,01972
454,111	0,01953
454,316	0,01907
454,52	0,01908
454,725	0,0191
454,93	0,0185
455,135	0,01833
455,34	0,01775
455,545	0,01771
455,749	0,01848
455,954	0,01812
456,159	0,01796
456,364	0,01987
456,568	0,02031
456,773	0,02055
456,978	0,02138
457,182	0,02192
457,387	0,02188
457,592	0,02197
457,796	0,02147
458,001	0,02183
458,206	0,02167
458,41	0,02222
458,615	0,0212
458,82	0,02131
459,024	0,0219
459,229	0,02216
459,433	0,02209
459,638	0,02209
459,842	0,02284
460,047	0,02284
460,251	0,02262
460,456	0,02255
460,66	0,02276
460,865	0,02316
461,069	0,02294
461,274	0,02262
461,478	0,02228
461,682	0,02244
461,887	0,02293
462,091	0,02271
462,296	0,02388
462,5	0,02445
462,704	0,02478
462,909	0,02444
463,113	0,02425
463,317	0,02467
463,522	0,02507
463,726	0,02512
463,93	0,02523
464,134	0,02488
464,339	0,0247
464,543	0,02419
464,747	0,02386
464,951	0,02496
465,155	0,02547
465,36	0,02627
465,564	0,02571
465,768	0,02566
465,972	0,02637
466,176	0,02626
466,38	0,02696
466,584	0,02755
466,788	0,02806
466,993	0,02827
467,197	0,02774
467,401	0,02785
467,605	0,02782
467,809	0,0286
468,013	0,0293
468,217	0,02916
468,421	0,02929
468,625	0,02884
468,829	0,02891
469,033	0,02864
469,236	0,02931
469,44	0,02927
469,644	0,02922
469,848	0,02879
470,052	0,02971
470,256	0,02916
470,46	0,02899
470,664	0,02986
470,867	0,03035
471,071	0,03028
471,275	0,0309
471,479	0,0306
471,683	0,03094
471,886	0,03159
472,09	0,03217
472,294	0,03155
472,497	0,032
472,701	0,03248
472,905	0,03255
473,109	0,03296
473,312	0,03336
473,516	0,03373
473,719	0,03407
473,923	0,03411
474,127	0,03412
474,33	0,03438
474,534	0,03513
474,737	0,03559
474,941	0,03594
475,145	0,03528
475,348	0,03509
475,552	0,03522
475,755	0,0353
475,959	0,03582
476,162	0,03653
476,366	0,03686
476,569	0,03683
476,772	0,03712
476,976	0,03709
477,179	0,03722
477,383	0,03828
477,586	0,03863
477,789	0,03904
477,993	0,03947
478,196	0,03966
478,399	0,04001
478,603	0,04037
478,806	0,04076
479,009	0,04054
479,213	0,04059
479,416	0,04078
479,619	0,04108
479,822	0,04188
480,026	0,04261
480,229	0,04259
480,432	0,04293
480,635	0,04297
480,838	0,04334
481,041	0,04346
481,245	0,04366
481,448	0,04393
481,651	0,04434
481,854	0,04443
482,057	0,04415
482,26	0,04402
482,463	0,04453
482,666	0,04487
482,869	0,04553
483,072	0,0455
483,275	0,04592
483,478	0,04632
483,681	0,04722
483,884	0,04756
484,087	0,04802
484,29	0,0488
484,493	0,04905
484,696	0,04925
484,899	0,04961
485,102	0,04946
485,305	0,04966
485,508	0,05052
485,71	0,05098
485,913	0,05116
486,116	0,05134
486,319	0,05174
486,522	0,05192
486,725	0,05236
486,927	0,05298
487,13	0,05322
487,333	0,05389
487,536	0,05462
487,738	0,05468
487,941	0,05496
488,144	0,05526
488,346	0,05584
488,549	0,05617
488,752	0,05658
488,954	0,05714
489,157	0,05726
489,359	0,05765
489,562	0,0578
489,765	0,05792
489,967	0,05858
490,17	0,05913
490,372	0,05961
490,575	0,0596
490,777	0,05994
490,98	0,06019
491,182	0,06026
491,385	0,06079
491,587	0,06127
491,79	0,06175
491,992	0,0625
492,195	0,06273
492,397	0,06297
492,599	0,0632
492,802	0,06364
493,004	0,06435
493,207	0,06487
493,409	0,0655
493,611	0,06595
493,814	0,0664
494,016	0,06683
494,218	0,06695
494,42	0,06732
494,623	0,06803
494,825	0,06869
495,027	0,06917
495,229	0,06923
495,432	0,06962
495,634	0,07019
495,836	0,07054
496,038	0,07089
496,24	0,07129
496,442	0,07182
496,645	0,07224
496,847	0,07245
497,049	0,07269
497,251	0,07356
497,453	0,07412
497,655	0,07466
497,857	0,07518
498,059	0,07592
498,261	0,07633
498,463	0,07705
498,665	0,07772
498,867	0,07823
499,069	0,0791
499,271	0,07972
499,473	0,08007
499,675	0,08052
499,877	0,08096
500,079	0,08147
500,281	0,08169
500,482	0,08229
500,684	0,08272
500,886	0,08308
501,088	0,08363
501,29	0,08395
501,492	0,08433
501,693	0,08502
501,895	0,08569
502,097	0,08625
502,299	0,08677
502,5	0,08745
502,702	0,0882
502,904	0,08906
503,106	0,08986
503,307	0,09032
503,509	0,09088
503,711	0,09179
503,912	0,09242
504,114	0,09273
504,315	0,0934
504,517	0,09389
504,719	0,09471
504,92	0,09518
505,122	0,09535
505,323	0,0956
505,525	0,09635
505,726	0,09705
505,928	0,09752
506,129	0,09789
506,331	0,09869
506,532	0,09936
506,734	0,09975
506,935	0,10039
507,137	0,10098
507,338	0,10154
507,539	0,10208
507,741	0,10276
507,942	0,1031
508,143	0,10371
508,345	0,10445
508,546	0,10531
508,747	0,10604
508,949	0,10698
509,15	0,10709
509,351	0,10749
509,553	0,10803
509,754	0,10891
509,955	0,10921
510,156	0,1102
510,357	0,11087
510,559	0,11152
510,76	0,11175
510,961	0,11249
511,162	0,11305
511,363	0,11383
511,564	0,11466
511,766	0,1156
511,967	0,11635
512,168	0,11725
512,369	0,11782
512,57	0,11847
512,771	0,11927
512,972	0,12014
513,173	0,12068
513,374	0,12155
513,575	0,12239
513,776	0,1232
513,977	0,12374
514,178	0,12437
514,379	0,12522
514,58	0,12596
514,781	0,12678
514,981	0,12757
515,182	0,1283
515,383	0,12903
515,584	0,12981
515,785	0,13057
515,986	0,13138
516,187	0,13233
516,387	0,13313
516,588	0,13406
516,789	0,13487
516,99	0,13545
517,19	0,13611
517,391	0,13706
517,592	0,13791
517,793	0,13856
517,993	0,13933
518,194	0,14001
518,395	0,14073
518,595	0,14158
518,796	0,14221
518,996	0,14276
519,197	0,14363
519,398	0,14421
519,598	0,14494
519,799	0,14548
519,999	0,1462
520,2	0,14712
520,4	0,14783
520,601	0,14877
520,801	0,14954
521,002	0,15016
521,202	0,15088
521,403	0,15165
521,603	0,15256
521,804	0,15319
522,004	0,15407
522,204	0,15492
522,405	0,15557
522,605	0,15646
522,806	0,15734
523,006	0,15808
523,206	0,15878
523,407	0,15992
523,607	0,1605
523,807	0,16128
524,007	0,162
524,208	0,16292
524,408	0,16358
524,608	0,16442
524,808	0,16516
525,009	0,16582
525,209	0,16659
525,409	0,1674
525,609	0,16786
525,809	0,16892
526,009	0,1696
526,209	0,17046
526,41	0,17105
526,61	0,17204
526,81	0,17279
527,01	0,17341
527,21	0,17396
527,41	0,17494
527,61	0,17558
527,81	0,17639
528,01	0,17705
528,21	0,17788
528,41	0,17864
528,61	0,1794
528,81	0,18016
529,01	0,18086
529,21	0,18177
529,41	0,18238
529,609	0,18284
529,809	0,18376
530,009	0,18459
530,209	0,18526
530,409	0,18587
530,609	0,18669
530,808	0,18712
531,008	0,18762
531,208	0,18826
531,408	0,18888
531,608	0,18984
531,807	0,19022
532,007	0,19095
532,207	0,19138
532,406	0,19205
532,606	0,19289
532,806	0,1935
533,005	0,19434
533,205	0,19481
533,405	0,19527
533,604	0,19614
533,804	0,19661
534,003	0,19753
534,203	0,19802
534,403	0,19856
534,602	0,19929
534,802	0,19967
535,001	0,20018
535,201	0,20077
535,4	0,20148
535,6	0,20218
535,799	0,20253
535,998	0,20316
536,198	0,20369
536,397	0,20431
536,597	0,20505
536,796	0,20555
536,995	0,20617
537,195	0,20673
537,394	0,20732
537,594	0,20795
537,793	0,20848
537,992	0,20911
538,191	0,20969
538,391	0,21024
538,59	0,21077
538,789	0,21118
538,988	0,21157
539,188	0,21207
539,387	0,21267
539,586	0,21328
539,785	0,21351
539,984	0,21407
540,184	0,21447
540,383	0,21505
540,582	0,21556
540,781	0,2162
540,98	0,21696
541,179	0,21763
541,378	0,21825
541,577	0,21853
541,776	0,21891
541,975	0,21948
542,174	0,21976
542,373	0,22024
542,572	0,22027
542,771	0,22076
542,97	0,22094
543,169	0,22111
543,368	0,22129
543,567	0,22166
543,766	0,22218
543,965	0,22248
544,164	0,2228
544,362	0,22334
544,561	0,22373
544,76	0,22425
544,959	0,22461
545,158	0,22519
545,356	0,22558
545,555	0,22616
545,754	0,22635
545,953	0,22667
546,151	0,22704
546,35	0,22746
546,549	0,22758
546,748	0,22778
546,946	0,22812
547,145	0,22849
547,344	0,22866
547,542	0,229
547,741	0,22917
547,939	0,22933
548,138	0,22968
548,337	0,2299
548,535	0,23006
548,734	0,23029
548,932	0,23034
549,131	0,23049
549,329	0,23058
549,528	0,23087
549,726	0,23114
549,925	0,23142
550,123	0,23178
550,322	0,23191
550,52	0,23227
550,718	0,23249
550,917	0,23302
551,115	0,2335
551,313	0,23399
551,512	0,23432
551,71	0,2345
551,908	0,23476
552,107	0,23505
552,305	0,23526
552,503	0,23545
552,702	0,23554
552,9	0,23592
553,098	0,2362
553,296	0,23636
553,495	0,23652
553,693	0,23666
553,891	0,23684
554,089	0,23704
554,287	0,23719
554,485	0,23751
554,683	0,23786
554,882	0,23816
555,08	0,23835
555,278	0,23838
555,476	0,2388
555,674	0,23904
555,872	0,23925
556,07	0,23954
556,268	0,23991
556,466	0,24021
556,664	0,24052
556,862	0,2407
557,06	0,2412
557,258	0,24154
557,456	0,242
557,654	0,24216
557,851	0,24241
558,049	0,2427
558,247	0,24303
558,445	0,24347
558,643	0,24365
558,841	0,24384
559,039	0,24416
559,236	0,24434
559,434	0,24473
559,632	0,24506
559,83	0,24556
560,027	0,2459
560,225	0,24643
560,423	0,24678
560,62	0,24703
560,818	0,24744
561,016	0,24779
561,213	0,24821
561,411	0,24854
561,609	0,24891
561,806	0,24907
562,004	0,24943
562,202	0,24979
562,399	0,25002
562,597	0,25047
562,794	0,25089
562,992	0,25126
563,189	0,25166
563,387	0,25217
563,584	0,25264
563,782	0,25287
563,979	0,25341
564,177	0,25373
564,374	0,25422
564,571	0,25475
564,769	0,25516
564,966	0,2554
565,164	0,25576
565,361	0,25617
565,558	0,25646
565,756	0,25684
565,953	0,25757
566,15	0,25801
566,347	0,25858
566,545	0,25918
566,742	0,25969
566,939	0,26018
567,136	0,26065
567,334	0,26131
567,531	0,26183
567,728	0,26258
567,925	0,26328
568,122	0,26376
568,319	0,26442
568,517	0,26494
568,714	0,26542
568,911	0,26601
569,108	0,26665
569,305	0,26731
569,502	0,26786
569,699	0,26857
569,896	0,26909
570,093	0,26962
570,29	0,27027
570,487	0,27084
570,684	0,27159
570,881	0,27222
571,078	0,27291
571,275	0,27355
571,472	0,27436
571,669	0,275
571,866	0,27581
572,062	0,27644
572,259	0,27712
572,456	0,27777
572,653	0,27851
572,85	0,27898
573,047	0,27975
573,243	0,28023
573,44	0,28086
573,637	0,28151
573,834	0,28233
574,03	0,2831
574,227	0,28386
574,424	0,2847
574,62	0,28542
574,817	0,2863
575,014	0,28723
575,21	0,288
575,407	0,28906
575,604	0,28983
575,8	0,29062
575,997	0,29133
576,193	0,29197
576,39	0,29273
576,586	0,2935
576,783	0,29419
576,979	0,2948
577,176	0,29566
577,372	0,29619
577,569	0,29685
577,765	0,29766
577,962	0,29835
578,158	0,29929
578,355	0,30001
578,551	0,30076
578,747	0,30144
578,944	0,30233
579,14	0,30315
579,336	0,30389
579,533	0,30478
579,729	0,30537
579,925	0,3059
580,122	0,30654
580,318	0,30722
580,514	0,30798
580,71	0,30855
580,906	0,30947
581,103	0,31027
581,299	0,31095
581,495	0,3116
581,691	0,31228
581,887	0,31313
582,084	0,31403
582,28	0,31481
582,476	0,31524
582,672	0,31595
582,868	0,31688
583,064	0,31733
583,26	0,31775
583,456	0,31836
583,652	0,31886
583,848	0,31948
584,044	0,31994
584,24	0,32028
584,436	0,32081
584,632	0,32132
584,828	0,3217
585,024	0,32208
585,22	0,32245
585,416	0,32286
585,611	0,32322
585,807	0,32351
586,003	0,32386
586,199	0,32433
586,395	0,32488
586,591	0,32509
586,786	0,3255
586,982	0,32582
587,178	0,32601
587,374	0,32625
587,569	0,32651
587,765	0,32671
587,961	0,327
588,156	0,32726
588,352	0,32734
588,548	0,32736
588,743	0,3275
588,939	0,32755
589,135	0,32772
589,33	0,32774
589,526	0,32795
589,721	0,32782
589,917	0,32777
590,112	0,32759
590,308	0,3273
590,503	0,32718
590,699	0,32708
590,894	0,32687
591,09	0,32663
591,285	0,32642
591,481	0,32617
591,676	0,32584
591,872	0,32574
592,067	0,32542
592,262	0,3253
592,458	0,32505
592,653	0,32462
592,848	0,32428
593,044	0,32407
593,239	0,32371
593,434	0,32316
593,629	0,32264
593,825	0,32209
594,02	0,32139
594,215	0,32083
594,41	0,32021
594,606	0,31952
594,801	0,31886
594,996	0,31822
595,191	0,31747
595,386	0,3168
595,581	0,31596
595,777	0,31532
595,972	0,31461
596,167	0,31371
596,362	0,31287
596,557	0,31183
596,752	0,31097
596,947	0,3101
597,142	0,30912
597,337	0,30812
597,532	0,30705
597,727	0,30617
597,922	0,30495
598,117	0,30367
598,312	0,30267
598,507	0,30143
598,701	0,30022
598,896	0,29913
599,091	0,29781
599,286	0,2966
599,481	0,29527
599,676	0,29401
599,87	0,29258
600,065	0,29127
600,26	0,28999
600,455	0,28871
600,65	0,2873
600,844	0,28603
601,039	0,28446
601,234	0,28318
601,428	0,28165
601,623	0,28014
601,818	0,27867
602,012	0,27726
602,207	0,27587
602,402	0,27435
602,596	0,27254
602,791	0,27113
602,985	0,2697
603,18	0,26827
603,374	0,26652
603,569	0,26499
603,763	0,2635
603,958	0,26197
604,152	0,26032
604,347	0,25852
604,541	0,25686
604,736	0,25536
604,93	0,25366
605,125	0,25165
605,319	0,24989
605,513	0,24825
605,708	0,24653
605,902	0,24465
606,096	0,24274
606,291	0,24111
606,485	0,23927
606,679	0,23763
606,874	0,23578
607,068	0,23391
607,262	0,23225
607,456	0,23059
607,65	0,2287
607,845	0,22694
608,039	0,22519
608,233	0,22334
608,427	0,22126
608,621	0,21963
608,815	0,21769
609,01	0,21597
609,204	0,21429
609,398	0,2126
609,592	0,21069
609,786	0,20899
609,98	0,2072
610,174	0,20545
610,368	0,20376
610,562	0,20204
610,756	0,20023
610,95	0,19857
611,144	0,19676
611,338	0,1948
611,532	0,19285
611,726	0,191
611,919	0,18927
612,113	0,18748
612,307	0,18575
612,501	0,18396
612,695	0,18238
612,889	0,18058
613,082	0,17873
613,276	0,17698
613,47	0,17535
613,664	0,17364
613,857	0,17181
614,051	0,17001
614,245	0,16814
614,439	0,16635
614,632	0,16472
614,826	0,1628
615,02	0,16098
615,213	0,15938
615,407	0,15779
615,6	0,15613
615,794	0,15457
615,988	0,15302
616,181	0,15137
616,375	0,14972
616,568	0,14804
616,762	0,14642
616,955	0,14497
617,149	0,14351
617,342	0,14183
617,536	0,14027
617,729	0,13876
617,923	0,13732
618,116	0,13588
618,309	0,13433
618,503	0,13298
618,696	0,13145
618,889	0,12991
619,083	0,12827
619,276	0,12678
619,469	0,12521
619,663	0,12368
619,856	0,12218
620,049	0,12077
620,242	0,11932
620,436	0,11791
620,629	0,11649
620,822	0,11523
621,015	0,11384
621,209	0,11261
621,402	0,11134
621,595	0,11012
621,788	0,10889
621,981	0,10752
622,174	0,10612
622,367	0,10469
622,56	0,10337
622,753	0,10207
622,946	0,10083
623,139	0,09963
623,332	0,09832
623,525	0,09694
623,718	0,09567
623,911	0,09449
624,104	0,09338
624,297	0,09221
624,49	0,09122
624,683	0,09013
624,876	0,08906
625,069	0,08781
625,262	0,0868
625,454	0,08578
625,647	0,08489
625,84	0,08377
626,033	0,08257
626,226	0,08151
626,418	0,08051
626,611	0,07955
626,804	0,07852
626,997	0,07734
627,189	0,07649
627,382	0,07537
627,575	0,07437
627,767	0,07341
627,96	0,07263
628,153	0,07169
628,345	0,0707
628,538	0,06971
628,731	0,06867
628,923	0,06779
629,116	0,06709
629,308	0,06604
629,501	0,06521
629,693	0,06442
629,886	0,06351
630,078	0,06249
630,271	0,06174
630,463	0,06101
630,656	0,06019
630,848	0,05931
631,04	0,05854
631,233	0,05768
631,425	0,05701
631,617	0,05621
631,81	0,05533
632,002	0,05451
632,194	0,05387
632,387	0,05312
632,579	0,05247
632,771	0,05167
632,964	0,05115
633,156	0,05037
633,348	0,04963
633,54	0,049
633,732	0,04829
633,925	0,04768
634,117	0,0472
634,309	0,04654
634,501	0,0458
634,693	0,04499
634,885	0,04441
635,077	0,04376
635,269	0,04321
635,462	0,04268
635,654	0,04207
635,846	0,0416
636,038	0,04095
636,23	0,04036
636,422	0,03982
636,614	0,03935
636,806	0,03891
636,997	0,03841
637,189	0,03779
637,381	0,0372
637,573	0,03669
637,765	0,03617
637,957	0,03554
638,149	0,03515
638,341	0,03466
638,532	0,03412
638,724	0,03357
638,916	0,03305
639,108	0,03252
639,299	0,03211
639,491	0,03164
639,683	0,03128
639,875	0,0308
640,066	0,03048
640,258	0,02998
640,45	0,02947
640,641	0,02921
640,833	0,02888
641,025	0,0286
641,216	0,02824
641,408	0,02782
641,599	0,02752
641,791	0,0271
641,982	0,02664
642,174	0,02619
642,366	0,02589
642,557	0,02546
642,748	0,02482
642,94	0,02437
643,131	0,02388
643,323	0,0235
643,514	0,0232
643,706	0,02292
643,897	0,02257
644,088	0,02234
644,28	0,02213
644,471	0,02181
644,662	0,0216
644,854	0,0215
645,045	0,02133
645,236	0,02104
645,428	0,02071
645,619	0,02038
645,81	0,02007
646,001	0,01972
646,193	0,01946
646,384	0,01913
646,575	0,01884
646,766	0,01859
646,957	0,01828
647,148	0,01797
647,339	0,01774
647,531	0,01765
647,722	0,01735
647,913	0,01702
648,104	0,01682
648,295	0,0165
648,486	0,01632
648,677	0,01603
648,868	0,0158
649,059	0,0156
649,25	0,01543
649,441	0,0152
649,632	0,01487
649,823	0,01478
650,013	0,01465
650,204	0,01439
650,395	0,01417
650,586	0,014
650,777	0,01382
650,968	0,01364
651,159	0,01353
651,349	0,01327
651,54	0,01306
651,731	0,01286
651,922	0,01265
652,112	0,0124
652,303	0,01227
652,494	0,0122
652,684	0,0119
652,875	0,01176
653,066	0,01154
653,256	0,01135
653,447	0,01122
653,638	0,01106
653,828	0,01096
654,019	0,01081
654,209	0,0107
654,4	0,01057
654,59	0,01046
654,781	0,01046
654,972	0,01027
655,162	0,01019
655,352	0,00999
655,543	0,00983
655,733	0,00973
655,924	0,00963
656,114	0,00947
656,305	0,00939
656,495	0,00926
656,685	0,00902
656,876	0,00887
657,066	0,00875
657,256	0,0086
657,447	0,00851
657,637	0,00846
657,827	0,00828
658,017	0,00818
658,208	0,00808
658,398	0,00794
658,588	0,00782
658,778	0,00784
658,968	0,00767
659,159	0,00769
659,349	0,00749
659,539	0,00736
659,729	0,00726
659,919	0,00738
660,109	0,00718
660,299	0,00727
660,489	0,00713
660,679	0,00703
660,869	0,00678
661,059	0,00674
661,249	0,00648
661,439	0,00644
661,629	0,00632
661,819	0,0062
662,009	0,00596
662,199	0,00603
662,389	0,00582
662,579	0,00576
662,769	0,00571
662,959	0,00572
663,149	0,00566
663,338	0,00571
663,528	0,00573
663,718	0,0057
663,908	0,00559
664,097	0,00549
664,287	0,00528
664,477	0,00519
664,667	0,00507
664,856	0,00496
665,046	0,00492
665,236	0,00481
665,425	0,0047
665,615	0,00451
665,805	0,00444
665,994	0,00449
666,184	0,00445
666,373	0,00449
666,563	0,00443
666,753	0,00448
666,942	0,00444
667,132	0,0042
667,321	0,00412
667,511	0,00407
667,7	0,00412
667,889	0,00393
668,079	0,00384
668,268	0,00384
668,458	0,00372
668,647	0,00372
668,836	0,00362
669,026	0,00367
669,215	0,00375
669,404	0,00375
669,594	0,00375
669,783	0,00365
669,972	0,00374
670,162	0,00368
670,351	0,00351
670,54	0,00339
670,729	0,00331
670,919	0,00332
671,108	0,00315
671,297	0,00307
671,486	0,00303
671,675	0,003
671,864	0,00301
672,053	0,00295
672,243	0,00299
672,432	0,00306
672,621	0,00309
672,81	0,00301
672,999	0,00291
673,188	0,00295
673,377	0,00294
673,566	0,00294
673,755	0,00281
673,944	0,0027
674,133	0,00265
674,322	0,00259
674,51	0,00258
674,699	0,00255
674,888	0,00256
675,077	0,00254
675,266	0,00251
675,455	0,00258
675,644	0,00242
675,832	0,00242
676,021	0,00245
676,21	0,00241
676,399	0,0023
676,587	0,00219
676,776	0,00208
676,965	0,002
677,153	0,00196
677,342	0,00189
677,531	0,00165
677,719	0,00167
677,908	0,00171
678,097	0,00165
678,285	0,00171
678,474	0,0017
678,662	0,00169
678,851	0,00178
679,039	0,00174
679,228	0,00173
679,416	0,00173
679,605	0,0018
679,793	0,00181
679,982	0,00176
680,17	0,00175
680,359	0,00176
680,547	0,00177
680,736	0,00176
680,924	0,00177
681,112	0,00182
681,301	0,00195
681,489	0,00191
681,677	0,00191
681,866	0,00181
682,054	0,00171
682,242	0,00165
682,43	0,00161
682,619	0,00152
682,807	0,00143
682,995	0,00124
683,183	0,00118
683,371	0,00106
683,559	0,00102
683,748	0,00097
683,936	0,00105
684,124	0,00106
684,312	0,001
684,5	0,0009
684,688	0,00105
684,876	0,00108
685,064	0,00111
685,252	0,00113
685,44	0,00107
685,628	0,00103
685,816	0,00101
686,004	0,00093
686,192	0,00085
686,38	0,00085
686,568	0,00089
686,756	0,00064
686,944	0,00062
687,131	0,00063
687,319	0,0007
687,507	0,00065
687,695	0,00061
687,883	0,00055
688,07	0,00055
688,258	0,00062
688,446	0,00068
688,634	0,00072
688,821	0,00074
689,009	0,00076
689,197	0,00075
689,384	0,00064
689,572	0,0006
689,76	0,00067
689,947	0,00067
690,135	0,0006
690,323	0,00062
690,51	0,00057
690,698	0,00048
690,885	0,00056
691,073	0,00058
691,26	0,00056
691,448	0,00055
691,635	0,00055
691,823	0,00052
692,01	0,00052
692,197	0,00053
692,385	0,00046
692,572	0,00052
692,76	0,00051
692,947	0,00048
693,134	0,00048
693,322	0,00038
693,509	0,00029
693,696	0,00022
693,884	0,00018
694,071	0,00022
694,258	0,00023
694,445	0,00024
694,633	0,00011
694,82	0,00001
695,007	-0,00001
695,194	-0,00002
695,381	0,00004
695,568	0,00005
695,756	0,00014
695,943	0,00021
696,13	0,00011
696,317	0,00007
696,504	0,00006
696,691	0,00014
696,878	0,00026
697,065	0,00023
697,252	0,00029
697,439	0,00029
697,626	0,00033
697,813	0,00033
698	0,00017
698,187	0,00016
698,374	0,00013
698,561	0,00011
698,747	0,00005
698,934	-0,00006
699,121	-0,00006
699,308	-0,0002
699,495	-0,00021
699,682	-0,00018
699,868	-0,00029
700,055	-0,00031
700,242	-0,00036
700,429	-0,00048
700,615	-0,00053
700,802	-0,00054
700,989	-0,00052
701,175	-0,00064
701,362	-0,00062
701,549	-0,00059
701,735	-0,00069
701,922	-0,00067
702,108	-0,00052
702,295	-0,00043
702,482	-0,00034
702,668	-0,00027
702,855	-0,00029
703,041	-0,00029
703,228	-0,00025
703,414	-0,00029
703,601	-0,00034
703,787	-0,00032
703,973	-0,00046
704,16	-0,00064
704,346	-0,00064
704,533	-0,00067
704,719	-0,00074
704,905	-0,00083
705,092	-0,00085
705,278	-0,00081
705,464	-0,00069
705,65	-0,00067
705,837	-0,00069
706,023	-0,00057
706,209	-0,00048
706,395	-0,00051
706,582	-0,00048
706,768	-0,00046
706,954	-0,00026
707,14	-0,00026
707,326	-0,00024
707,512	-0,00042
707,698	-0,0004
707,885	-0,00047
708,071	-0,00044
708,257	-0,00049
708,443	-0,00044
708,629	-0,00035
708,815	-0,00026
709,001	-0,00035
709,187	-0,00034
709,373	-0,00025
709,559	-0,00025
709,745	-0,00029
709,93	-0,0003
710,116	-0,00031
710,302	-0,00014
710,488	-0,00015
710,674	-0,00016
710,86	-0,00026
711,046	-0,0003
711,231	-0,00027
711,417	-0,00035
711,603	-0,00034
711,789	-0,00037
711,974	-0,00027
712,16	-0,0003
712,346	-0,00042
712,532	-0,00052
712,717	-0,00069
712,903	-0,0007
713,089	-0,00062
713,274	-0,00074
713,46	-0,00081
713,645	-0,00083
713,831	-0,00075
714,016	-0,00082
714,202	-0,00077
714,388	-0,00065
714,573	-0,00066
714,759	-0,00053
714,944	-0,00054
715,129	-0,00062
715,315	-0,0006
715,5	-0,00072
715,686	-0,00067
715,871	-0,00073
716,057	-0,00071
716,242	-0,00064
716,427	-0,00075
716,613	-0,0007
716,798	-0,00082
716,983	-0,00081
717,168	-0,00089
717,354	-0,00074
717,539	-0,00056
717,724	-0,00059
717,909	-0,00055
718,095	-0,0005
718,28	-0,00058
718,465	-0,00059
718,65	-0,00063
718,835	-0,00074
719,02	-0,00079
719,206	-0,00066
719,391	-0,00079
719,576	-0,00098
719,761	-0,001
719,946	-0,00104
720,131	-0,0011
720,316	-0,00112
720,501	-0,00115
720,686	-0,00107
720,871	-0,00079
721,056	-0,00082
721,241	-0,00094
721,426	-0,00095
721,61	-0,00079
721,795	-0,00083
721,98	-0,00088
722,165	-0,00087
722,35	-0,0008
722,535	-0,00078
722,719	-0,00085
722,904	-0,00095
723,089	-0,00092
723,274	-0,00084
723,458	-0,00085
723,643	-0,00092
723,828	-0,00087
724,013	-0,00089
724,197	-0,00091
724,382	-0,00105
724,567	-0,00112
724,751	-0,0011
724,936	-0,00112
725,12	-0,00109
725,305	-0,00104
725,489	-0,00101
725,674	-0,00104
725,859	-0,0011
726,043	-0,00104
726,228	-0,00101
726,412	-0,00093
726,596	-0,00097
726,781	-0,00097
726,965	-0,00102
727,15	-0,00095
727,334	-0,00104
727,518	-0,00119
727,703	-0,00108
727,887	-0,00099
728,072	-0,00097
728,256	-0,00095
728,44	-0,00096
728,624	-0,0009
728,809	-0,00104
728,993	-0,00091
729,177	-0,00094
729,361	-0,00087
729,546	-0,00076
729,73	-0,00073
729,914	-0,00085
730,098	-0,00089
730,282	-0,00096
730,466	-0,00101
730,65	-0,00093
730,834	-0,00084
731,019	-0,00093
731,203	-0,00101
731,387	-0,00099
731,571	-0,00103
731,755	-0,00114
731,939	-0,00121
732,123	-0,0013
732,306	-0,00122
732,49	-0,00124
732,674	-0,0014
732,858	-0,00137
733,042	-0,00137
733,226	-0,00128
733,41	-0,00132
733,594	-0,0013
733,778	-0,00133
733,961	-0,00118
734,145	-0,00114
734,329	-0,00117
734,513	-0,00109
734,696	-0,00104
734,88	-0,00103
735,064	-0,00107
735,247	-0,00116
735,431	-0,00118
735,615	-0,00121
735,798	-0,00117
735,982	-0,00111
736,166	-0,00109
736,349	-0,00113
736,533	-0,00119
736,716	-0,00118
736,9	-0,00114
737,083	-0,00123
737,267	-0,00129
737,45	-0,00131
737,634	-0,00126
737,817	-0,00131
738,001	-0,00138
738,184	-0,00146
738,368	-0,00142
738,551	-0,00146
738,734	-0,00148
738,918	-0,00154
739,101	-0,0014
739,284	-0,00138
739,468	-0,00145
739,651	-0,00139
739,834	-0,00131
740,018	-0,00134
740,201	-0,00129
740,384	-0,00135
740,567	-0,00134
740,75	-0,00127
740,934	-0,00129
741,117	-0,00136
741,3	-0,0012
741,483	-0,0011
741,666	-0,00117
741,849	-0,00126
742,032	-0,00125
742,215	-0,00126
742,399	-0,00114
742,582	-0,00103
742,765	-0,00102
742,948	-0,00097
743,131	-0,00083
743,314	-0,00099
743,496	-0,0011
743,679	-0,00105
743,862	-0,00093
744,045	-0,00093
744,228	-0,00096
744,411	-0,00104
744,594	-0,0012
744,777	-0,00129
744,959	-0,00129
745,142	-0,00135
745,325	-0,00126
745,508	-0,00124
745,691	-0,00125
745,873	-0,00138
746,056	-0,00136
746,239	-0,00141
746,421	-0,00132
746,604	-0,00128
746,787	-0,00123
746,969	-0,00122
747,152	-0,00132
747,335	-0,00139
747,517	-0,00138
747,7	-0,00126
747,882	-0,00119
748,065	-0,00134
748,247	-0,00126
748,43	-0,00142
748,612	-0,00138
748,795	-0,00145
748,977	-0,00156
749,16	-0,00159
749,342	-0,00151
749,524	-0,00151
749,707	-0,00166
749,889	-0,00166
750,072	-0,00161
750,254	-0,00165
750,436	-0,0016
750,619	-0,00155
750,801	-0,00159
750,983	-0,00156
751,165	-0,00153
751,348	-0,00159
751,53	-0,00171
751,712	-0,00171
751,894	-0,00176
752,076	-0,00158
752,259	-0,00157
752,441	-0,00151
752,623	-0,0016
752,805	-0,00168
752,987	-0,00172
753,169	-0,00176
753,351	-0,00179
753,533	-0,00172
753,715	-0,00168
753,897	-0,0018
754,079	-0,0019
754,261	-0,00197
754,443	-0,00204
754,625	-0,00197
754,807	-0,00182
754,989	-0,00171
755,171	-0,00169
755,353	-0,00172
755,534	-0,00169
755,716	-0,00169
755,898	-0,00168
756,08	-0,00163
756,262	-0,00161
756,443	-0,00166
756,625	-0,00162
756,807	-0,00168
756,989	-0,00175
757,17	-0,00174
757,352	-0,00172
757,534	-0,00165
757,715	-0,00175
757,897	-0,00169
758,079	-0,00172
758,26	-0,00173
758,442	-0,00168
758,623	-0,00178
758,805	-0,00174
758,987	-0,00177
759,168	-0,00179
759,35	-0,00183
759,531	-0,00183
759,713	-0,0018
759,894	-0,00187
760,075	-0,00188
760,257	-0,00195
760,438	-0,00194
760,62	-0,00196
760,801	-0,00196
760,982	-0,00194
761,164	-0,00197
761,345	-0,00191
761,526	-0,00194
761,708	-0,00192
761,889	-0,00188
762,07	-0,00194
762,251	-0,00177
762,433	-0,00176
762,614	-0,00184
762,795	-0,00182
762,976	-0,00184
763,157	-0,00179
763,338	-0,00185
763,52	-0,00188
763,701	-0,00197
763,882	-0,00202
764,063	-0,00199
764,244	-0,00212
764,425	-0,00207
764,606	-0,00206
764,787	-0,00217
764,968	-0,00214
765,149	-0,00218
765,33	-0,00216
765,511	-0,00217
765,692	-0,00216
765,873	-0,00214
766,053	-0,00219
766,234	-0,00226
766,415	-0,00237
766,596	-0,00236
766,777	-0,00236
766,958	-0,00243
767,138	-0,00246
767,319	-0,00248
767,5	-0,00245
767,681	-0,00251
767,861	-0,00228
768,042	-0,00226
768,223	-0,00221
768,403	-0,00229
768,584	-0,00227
768,765	-0,00218
768,945	-0,00224
769,126	-0,00221
769,307	-0,00225
769,487	-0,00224
769,668	-0,00214
769,848	-0,00239
770,029	-0,00238
770,209	-0,00236
770,39	-0,00222
770,57	-0,00213
770,751	-0,00218
770,931	-0,00209
771,111	-0,00214
771,292	-0,00206
771,472	-0,0021
771,653	-0,00213
771,833	-0,00209
772,013	-0,00202
772,194	-0,002
772,374	-0,00211
772,554	-0,00219
772,734	-0,00223
772,915	-0,00221
773,095	-0,00219
773,275	-0,00217
773,455	-0,00217
773,635	-0,00233
773,816	-0,00224
773,996	-0,00222
774,176	-0,00213
774,356	-0,0021
774,536	-0,00209
774,716	-0,00204
774,896	-0,00211
775,076	-0,00216
775,256	-0,00222
775,436	-0,00214
775,616	-0,00188
775,796	-0,00188
775,976	-0,00192
776,156	-0,00204
776,336	-0,00197
776,516	-0,00202
776,696	-0,00217
776,876	-0,00199
777,056	-0,00201
777,235	-0,00201
777,415	-0,00195
777,595	-0,00205
777,775	-0,00212
777,955	-0,00225
778,134	-0,0023
778,314	-0,00227
778,494	-0,00228
778,674	-0,00216
778,853	-0,00232
779,033	-0,00228
779,213	-0,00226
779,392	-0,00235
779,572	-0,00229
779,751	-0,00235
779,931	-0,00228
780,111	-0,00221
780,29	-0,00236
780,47	-0,00233
780,649	-0,00234
780,829	-0,00225
781,008	-0,00216
781,188	-0,00225
781,367	-0,00228
781,546	-0,00227
781,726	-0,00225
781,905	-0,00224
782,085	-0,00228
782,264	-0,00217
782,443	-0,00222
782,623	-0,00219
782,802	-0,00227
782,981	-0,00234
783,161	-0,00228
783,34	-0,0023
783,519	-0,00235
783,698	-0,00236
783,878	-0,00226
784,057	-0,0023
784,236	-0,0022
784,415	-0,002
784,594	-0,00201
784,773	-0,00199
784,952	-0,00195
785,132	-0,00192
785,311	-0,00185
785,49	-0,00193
785,669	-0,00189
785,848	-0,00192
786,027	-0,0019
786,206	-0,00203
786,385	-0,0022
786,564	-0,00226
786,743	-0,00224
786,922	-0,00226
787,1	-0,00229
787,279	-0,00234
787,458	-0,00225
787,637	-0,00221
787,816	-0,00222
787,995	-0,0022
788,174	-0,0021
788,352	-0,00201
788,531	-0,00185
788,71	-0,00179
788,889	-0,00184
789,067	-0,00193
789,246	-0,00205
789,425	-0,0022
789,603	-0,00227
789,782	-0,00235
789,961	-0,0024
790,139	-0,00249
790,318	-0,00261
790,496	-0,00265
790,675	-0,00264
790,853	-0,00263
791,032	-0,00265
791,211	-0,00251
791,389	-0,00245
791,568	-0,00235
791,746	-0,00223
791,924	-0,00219
792,103	-0,00224
792,281	-0,00217
792,46	-0,00217
792,638	-0,0023
792,816	-0,00215
792,995	-0,00205
793,173	-0,00205
793,351	-0,00202
793,53	-0,00202
793,708	-0,00219
793,886	-0,00219
794,064	-0,0021
794,243	-0,00209
794,421	-0,00217
794,599	-0,00211
794,777	-0,00221
794,955	-0,00222
795,133	-0,00224
795,312	-0,00222
795,49	-0,00236
795,668	-0,00234
795,846	-0,00229
796,024	-0,00236
796,202	-0,00238
796,38	-0,00247
796,558	-0,00263
796,736	-0,00263
796,914	-0,00258
797,092	-0,00274
797,27	-0,00283
797,448	-0,0028
797,626	-0,0028
797,803	-0,00301
797,981	-0,00297
798,159	-0,00308
798,337	-0,00296
798,515	-0,00296
798,693	-0,00298
798,87	-0,00321
799,048	-0,00318
799,226	-0,00317
799,404	-0,00317
799,581	-0,00319
799,759	-0,00317
799,937	-0,00329
800,114	-0,00321
800,292	-0,00314
800,469	-0,00299
800,647	-0,00297
800,825	-0,00276
801,002	-0,00277
801,18	-0,00276
801,357	-0,0027
801,535	-0,00263
801,712	-0,00258
801,89	-0,00244
802,067	-0,00247
802,245	-0,00259
802,422	-0,00268
802,6	-0,00266
802,777	-0,00261
802,954	-0,00246
803,132	-0,00245
803,309	-0,00253
803,486	-0,0026
803,664	-0,00253
803,841	-0,0025
804,018	-0,00244
804,195	-0,00242
804,373	-0,00238
804,55	-0,00246
804,727	-0,00256
804,904	-0,00272
805,081	-0,00276
805,259	-0,00269
805,436	-0,00273
805,613	-0,00282
805,79	-0,0029
805,967	-0,00293
806,144	-0,00297
806,321	-0,003
806,498	-0,00298
806,675	-0,00289
806,852	-0,00273
807,029	-0,00266
807,206	-0,00274
807,383	-0,00267
807,56	-0,00266
807,737	-0,00268
807,914	-0,00275
808,091	-0,00268
808,268	-0,00255
808,444	-0,00259
808,621	-0,00282
808,798	-0,00305
808,975	-0,00307
809,152	-0,00314
809,328	-0,00313
809,505	-0,00318
809,682	-0,00325
809,858	-0,0033
810,035	-0,00343
810,212	-0,00365
810,388	-0,00353
810,565	-0,00332
810,742	-0,00333
810,918	-0,00332
811,095	-0,00327
811,271	-0,00325
811,448	-0,00322
811,625	-0,00311
811,801	-0,00302
811,978	-0,00297
812,154	-0,00304
812,33	-0,00302
812,507	-0,00305
812,683	-0,0029
812,86	-0,00293
813,036	-0,00283
813,212	-0,00282
813,389	-0,00275
813,565	-0,00283
813,741	-0,00272
813,918	-0,00263
814,094	-0,00241
814,27	-0,00264
814,447	-0,00273
814,623	-0,00276
814,799	-0,00269
814,975	-0,00279
815,151	-0,00284
815,328	-0,00298
815,504	-0,00295
815,68	-0,00298
815,856	-0,00298
816,032	-0,00297
816,208	-0,00298
816,384	-0,00297
816,56	-0,00303
816,736	-0,00319
816,912	-0,00305
817,088	-0,00309
817,264	-0,00297
817,44	-0,00297
817,616	-0,00308
817,792	-0,00318
817,968	-0,00319
818,144	-0,00289
818,32	-0,00288
818,495	-0,00272
818,671	-0,00267
818,847	-0,00283
819,023	-0,00276
819,199	-0,00267
819,374	-0,00252
819,55	-0,00261
819,726	-0,00261
819,902	-0,00261
820,077	-0,00287
820,253	-0,00282
820,429	-0,00297
820,604	-0,00274
820,78	-0,00259
820,956	-0,00264
821,131	-0,00272
821,307	-0,0029
821,482	-0,00286
821,658	-0,00267
821,833	-0,00289
822,009	-0,00293
822,184	-0,00299
822,36	-0,00286
822,535	-0,00303
822,711	-0,00312
822,886	-0,00318
823,061	-0,00325
823,237	-0,00311
823,412	-0,00291
823,587	-0,00309
823,763	-0,00296
823,938	-0,00281
824,113	-0,00283
824,289	-0,00307
824,464	-0,00307
824,639	-0,00305
824,814	-0,00296
824,99	-0,00302
825,165	-0,00318
825,34	-0,00317
825,515	-0,00302
825,69	-0,00299
825,865	-0,00296
826,04	-0,00283
826,215	-0,00255
826,39	-0,00236
826,566	-0,00228
826,741	-0,00226
826,916	-0,00211
827,091	-0,00206
827,265	-0,00219
827,44	-0,00222
827,615	-0,00226
827,79	-0,00239
827,965	-0,0024
828,14	-0,00246
828,315	-0,00265
828,49	-0,0027
828,665	-0,00278
828,839	-0,00283
829,014	-0,00288
829,189	-0,00303
829,364	-0,00295
829,538	-0,00265
829,713	-0,00261
829,888	-0,0026
830,063	-0,00269
830,237	-0,00278
830,412	-0,00276
830,587	-0,00254
830,761	-0,00241
830,936	-0,00222
831,11	-0,00201
831,285	-0,00225
831,459	-0,00242
831,634	-0,00232
831,809	-0,00234
831,983	-0,0024
832,157	-0,00237
832,332	-0,00232
832,506	-0,00243
832,681	-0,00249
832,855	-0,00266
833,03	-0,00284
833,204	-0,00275
833,378	-0,00281
833,553	-0,0029
833,727	-0,00294
833,901	-0,00271
834,076	-0,0027
834,25	-0,00285
834,424	-0,00271
834,598	-0,00277
834,773	-0,00269
834,947	-0,00254
835,121	-0,00251
835,295	-0,00254
835,469	-0,00256
835,643	-0,00263
835,817	-0,00275
835,991	-0,00276
836,166	-0,00278
836,34	-0,00298
836,514	-0,00293
836,688	-0,00271
836,862	-0,0027
837,036	-0,00292
837,21	-0,00297
837,384	-0,00283
837,557	-0,00282
837,731	-0,0028
837,905	-0,00267
838,079	-0,00256
838,253	-0,00257
838,427	-0,00257
838,601	-0,00286
838,774	-0,00308
838,948	-0,00312
839,122	-0,00298
839,296	-0,00295
839,469	-0,00276
839,643	-0,00283
839,817	-0,00313
839,991	-0,00324
840,164	-0,00309
840,338	-0,00328
840,512	-0,00319
840,685	-0,00309
840,859	-0,00289
841,032	-0,00296
841,206	-0,00298
841,379	-0,00313
841,553	-0,00304
841,726	-0,00258
841,9	-0,00244
842,073	-0,00247
842,247	-0,00238
842,42	-0,00254
842,594	-0,00247
842,767	-0,00256
842,94	-0,00276
843,114	-0,00265
843,287	-0,00259
843,46	-0,00286
843,634	-0,00321
843,807	-0,00325
843,98	-0,00335
844,154	-0,00341
844,327	-0,00341
844,5	-0,00332
844,673	-0,00307
844,846	-0,00296
845,02	-0,00313
845,193	-0,00335
845,366	-0,00323
845,539	-0,00319
845,712	-0,00319
845,885	-0,00342
846,058	-0,00336
846,231	-0,00341
846,404	-0,00345
846,577	-0,00352
846,75	-0,00332
846,923	-0,00316
847,096	-0,00296
847,269	-0,00283
847,442	-0,00283
847,615	-0,00279
847,788	-0,00258
847,961	-0,00247
848,133	-0,00206
848,306	-0,00207
848,479	-0,00196
848,652	-0,00208
848,825	-0,00219
848,997	-0,00209
849,17	-0,0021
849,343	-0,00192
849,515	-0,00206
849,688	-0,00213
849,861	-0,00222
850,033	-0,00244
850,206	-0,00258
850,379	-0,00283
850,551	-0,00292
850,724	-0,00293
850,896	-0,00323
851,069	-0,00337
851,241	-0,00353
851,414	-0,00333
851,586	-0,00336
851,759	-0,00325
851,931	-0,00336
852,104	-0,00332
852,276	-0,0032
852,449	-0,00315
852,621	-0,00316
852,793	-0,00309
852,966	-0,00309
853,138	-0,00298
853,31	-0,00312
853,483	-0,00289
853,655	-0,00309
853,827	-0,00318
853,999	-0,00319
854,172	-0,00319
854,344	-0,00317
854,516	-0,00317
854,688	-0,00313
854,86	-0,00311
855,032	-0,00309
855,204	-0,00312
855,377	-0,00332
855,549	-0,00333
855,721	-0,00331
855,893	-0,00323
856,065	-0,00342
856,237	-0,00347
856,409	-0,00347
856,581	-0,00347
856,753	-0,0033
856,924	-0,0033
857,096	-0,00307
857,268	-0,00299
857,44	-0,00286
857,612	-0,00269
857,784	-0,00284
857,956	-0,00266
858,127	-0,00269
858,299	-0,00287
858,471	-0,00287
858,643	-0,00292
858,814	-0,00299
858,986	-0,00316
859,158	-0,00317
859,33	-0,00331
859,501	-0,00339
859,673	-0,00316
859,844	-0,00315
860,016	-0,00302
860,188	-0,0029
860,359	-0,00293
860,531	-0,00301
860,702	-0,0031
860,874	-0,00325
861,045	-0,00325
861,217	-0,00325
861,388	-0,00326
861,56	-0,00345
861,731	-0,0035
861,902	-0,00344
862,074	-0,00346
862,245	-0,00332
862,417	-0,00315
862,588	-0,00316
862,759	-0,00321
862,931	-0,00326
863,102	-0,00324
863,273	-0,00327
863,444	-0,00333
863,616	-0,00321
863,787	-0,00333
863,958	-0,00332
864,129	-0,00343
864,3	-0,00372
864,471	-0,00373
864,642	-0,00349
864,814	-0,00365
864,985	-0,00377
865,156	-0,00386
865,327	-0,00396
865,498	-0,00404
865,669	-0,00424
865,84	-0,00421
866,011	-0,00416
866,182	-0,00408
866,353	-0,00416
866,523	-0,00451
866,694	-0,00425
866,865	-0,00396
867,036	-0,00411
867,207	-0,00395
867,378	-0,00438
867,549	-0,00438
867,719	-0,00463
867,89	-0,00486
868,061	-0,00475
868,232	-0,00462
868,402	-0,00447
868,573	-0,00478
868,744	-0,0048
868,914	-0,00474
869,085	-0,0051
869,256	-0,00494
869,426	-0,00498
869,597	-0,00495
869,767	-0,00477
869,938	-0,00476
870,108	-0,00469
870,279	-0,00443
870,449	-0,00454
870,62	-0,00477
870,79	-0,0046
870,961	-0,00413
871,131	-0,0039
871,302	-0,00342
871,472	-0,00327
871,642	-0,00331
871,813	-0,00344
871,983	-0,00342
872,153	-0,00378
872,324	-0,00346
872,494	-0,00345
872,664	-0,00358
872,835	-0,00334
873,005	-0,00312
873,175	-0,0034
873,345	-0,00342
873,515	-0,0034
873,685	-0,00335
873,856	-0,00339
874,026	-0,00325
874,196	-0,00334
874,366	-0,00332
874,536	-0,00325
874,706	-0,00365
874,876	-0,00392
875,046	-0,00429
875,216	-0,00432
875,386	-0,00412
875,556	-0,00388
875,726	-0,00419
875,896	-0,00417
876,066	-0,00398
876,236	-0,00416
876,405	-0,00413
876,575	-0,00418
876,745	-0,00409
876,915	-0,00364
877,085	-0,00354
877,254	-0,0037
877,424	-0,00407
877,594	-0,00379
877,764	-0,00388
877,933	-0,00399
878,103	-0,00397
878,273	-0,00357
878,442	-0,00358
878,612	-0,00357
878,781	-0,00367
878,951	-0,00359
879,121	-0,00384
879,29	-0,00375
879,46	-0,00371
879,629	-0,00353
879,799	-0,00368
879,968	-0,00333
880,138	-0,00361
880,307	-0,00368
880,476	-0,00362
880,646	-0,00376
880,815	-0,00413
880,985	-0,00385
881,154	-0,00383
881,323	-0,0041
881,493	-0,00408
881,662	-0,00408
881,831	-0,00405
882	-0,0041
882,17	-0,00374
882,339	-0,00404
882,508	-0,00409
882,677	-0,00372
882,846	-0,00356
883,016	-0,00339
883,185	-0,00313
883,354	-0,00329
883,523	-0,00328
883,692	-0,00321
883,861	-0,00291
884,03	-0,00353
884,199	-0,00357
884,368	-0,00336
884,537	-0,00371
884,706	-0,00394
884,875	-0,00409
885,044	-0,00412
885,213	-0,00374
885,382	-0,00365
885,55	-0,0039
885,719	-0,00432
885,888	-0,00403
886,057	-0,00394
886,226	-0,00411
886,395	-0,0038
886,563	-0,00404
886,732	-0,00395
886,901	-0,00399
887,069	-0,00432
887,238	-0,00415
887,407	-0,00409
887,575	-0,00377
887,744	-0,00365
887,913	-0,00392
888,081	-0,00406
888,25	-0,00382
888,418	-0,00361
888,587	-0,00394
888,755	-0,00404
888,924	-0,00369
889,092	-0,00412
889,261	-0,00439
889,429	-0,00459
889,598	-0,00458
889,766	-0,00388
889,935	-0,00354
890,103	-0,00437
890,271	-0,00446
890,44	-0,00453
890,608	-0,00454
890,776	-0,00503
890,944	-0,00461
891,113	-0,00441
891,281	-0,00439
891,449	-0,00462
891,617	-0,00531
891,786	-0,00569
891,954	-0,00507
892,122	-0,00464
892,29	-0,00447
892,458	-0,00451
892,626	-0,00433
892,794	-0,00447
892,962	-0,00446
893,13	-0,00454
893,298	-0,00422
893,466	-0,00372
