Data from Chemiepractica_Absorbance__26__11-43-53-088.txt Node

Date: Mon Dec 09 11:43:53 CET 2024
User: r0948668
Spectrometer: USB4F07138
Trigger mode: 4
Integration Time (sec): 6,000000E-3
Scans to average: 20
Electric dark correction enabled: true
Nonlinearity correction enabled: false
Boxcar width: 5
XAxis mode: Wavelengths
Number of Pixels in Spectrum: 3648
>>>>>Begin Spectral Data<<<<<
176,779	-0,70064
176,999	-1,2763
177,218	-0,55256
177,438	-0
177,658	-0
177,878	-0
178,097	0,65708
178,317	-0,08619
178,537	-0,16256
178,757	0,10528
178,976	0,12091
179,196	-0
179,416	-0,57774
179,635	0,29001
179,855	0,26519
180,075	0,2287
180,294	0,16311
180,514	0,14226
180,734	0,17005
180,953	0,1584
181,173	0,14638
181,392	0,10954
181,612	0,10059
181,832	0,10597
182,051	0,11163
182,271	0,10054
182,49	0,10203
182,71	0,08891
182,929	0,07885
183,149	0,07808
183,368	0,09284
183,588	0,08462
183,807	0,10625
184,027	0,1197
184,246	0,11896
184,466	0,11092
184,685	0,10317
184,905	0,09192
185,124	0,10743
185,344	0,11179
185,563	0,10388
185,782	0,08893
186,002	0,09407
186,221	0,08951
186,44	0,07794
186,66	0,08237
186,879	0,09516
187,099	0,10395
187,318	0,11042
187,537	0,0994
187,756	0,10783
187,976	0,09584
188,195	0,10045
188,414	0,10505
188,634	0,08958
188,853	0,09369
189,072	0,09045
189,291	0,07507
189,511	0,07687
189,73	0,08357
189,949	0,10096
190,168	0,09909
190,387	0,12471
190,607	0,11117
190,826	0,1082
191,045	0,11508
191,264	0,11511
191,483	0,10036
191,702	0,10888
191,921	0,10785
192,141	0,1079
192,36	0,09292
192,579	0,09115
192,798	0,08482
193,017	0,08157
193,236	0,08835
193,455	0,08118
193,674	0,0823
193,893	0,08863
194,112	0,09094
194,331	0,08191
194,55	0,07467
194,769	0,07377
194,988	0,07213
195,207	0,08051
195,426	0,09643
195,645	0,0821
195,864	0,08584
196,083	0,09157
196,302	0,07717
196,521	0,0759
196,739	0,07328
196,958	0,07702
197,177	0,08263
197,396	0,0828
197,615	0,0668
197,834	0,05227
198,053	0,05242
198,271	0,04635
198,49	0,05785
198,709	0,08107
198,928	0,0826
199,147	0,09152
199,365	0,0961
199,584	0,0848
199,803	0,06687
200,022	0,07048
200,24	0,06589
200,459	0,07576
200,678	0,09069
200,897	0,06922
201,115	0,06658
201,334	0,06335
201,553	0,05417
201,771	0,04283
201,99	0,04724
202,209	0,07897
202,427	0,07464
202,646	0,09085
202,864	0,08674
203,083	0,0735
203,302	0,08011
203,52	0,09238
203,739	0,09161
203,957	0,10063
204,176	0,11285
204,394	0,11628
204,613	0,10082
204,831	0,10413
205,05	0,10199
205,268	0,10465
205,487	0,10961
205,705	0,10079
205,924	0,10024
206,142	0,10713
206,361	0,10465
206,579	0,10545
206,798	0,10633
207,016	0,10378
207,234	0,10206
207,453	0,09993
207,671	0,10459
207,89	0,10237
208,108	0,10907
208,326	0,08844
208,545	0,08522
208,763	0,08755
208,981	0,07692
209,2	0,05793
209,418	0,07165
209,636	0,06518
209,855	0,07387
210,073	0,07012
210,291	0,06743
210,509	0,06418
210,728	0,05906
210,946	0,06186
211,164	0,0622
211,382	0,06579
211,6	0,08861
211,819	0,07764
212,037	0,07633
212,255	0,06033
212,473	0,06091
212,691	0,06487
212,909	0,07516
213,128	0,06796
213,346	0,06566
213,564	0,06435
213,782	0,06783
214	0,07652
214,218	0,07665
214,436	0,08631
214,654	0,09456
214,872	0,0846
215,09	0,06912
215,308	0,07227
215,526	0,08395
215,744	0,07543
215,962	0,06433
216,18	0,04635
216,398	0,04847
216,616	0,04892
216,834	0,05617
217,052	0,04702
217,27	0,04958
217,488	0,07164
217,706	0,06671
217,924	0,07348
218,142	0,0869
218,36	0,1045
218,578	0,12701
218,795	0,09809
219,013	0,10413
219,231	0,09001
219,449	0,09995
219,667	0,09357
219,885	0,08501
220,102	0,08491
220,32	0,08722
220,538	0,08212
220,756	0,06274
220,973	0,06328
221,191	0,07011
221,409	0,06476
221,627	0,0608
221,844	0,06823
222,062	0,07527
222,28	0,07278
222,497	0,06657
222,715	0,06311
222,933	0,05406
223,15	0,07028
223,368	0,07545
223,586	0,07829
223,803	0,08182
224,021	0,0865
224,239	0,08272
224,456	0,08434
224,674	0,08449
224,891	0,0839
225,109	0,08487
225,326	0,09283
225,544	0,09118
225,762	0,07101
225,979	0,07992
226,197	0,08133
226,414	0,07928
226,632	0,07032
226,849	0,05147
227,066	0,06394
227,284	0,06249
227,501	0,07465
227,719	0,07785
227,936	0,0734
228,154	0,08706
228,371	0,07451
228,588	0,07067
228,806	0,08302
229,023	0,09497
229,241	0,11865
229,458	0,11091
229,675	0,11883
229,893	0,10168
230,11	0,11307
230,327	0,1084
230,545	0,1064
230,762	0,12067
230,979	0,11777
231,196	0,10891
231,414	0,09684
231,631	0,088
231,848	0,08597
232,065	0,07971
232,283	0,08338
232,5	0,06077
232,717	0,05905
232,934	0,04822
233,151	0,04651
233,368	0,04137
233,586	0,04389
233,803	0,0465
234,02	0,0568
234,237	0,05607
234,454	0,05982
234,671	0,07777
234,888	0,08341
235,105	0,10624
235,322	0,12418
235,54	0,11852
235,757	0,13998
235,974	0,1343
236,191	0,13456
236,408	0,11026
236,625	0,12632
236,842	0,13179
237,059	0,11449
237,276	0,11442
237,493	0,09641
237,71	0,08811
237,926	0,07868
238,143	0,05965
238,36	0,0539
238,577	0,05205
238,794	0,07285
239,011	0,0652
239,228	0,05611
239,445	0,04718
239,662	0,06014
239,878	0,06718
240,095	0,06898
240,312	0,09219
240,529	0,10945
240,746	0,11611
240,963	0,11214
241,179	0,11372
241,396	0,11272
241,613	0,10589
241,83	0,11729
242,046	0,09627
242,263	0,09804
242,48	0,10478
242,697	0,08549
242,913	0,07608
243,13	0,0704
243,347	0,0757
243,563	0,0748
243,78	0,08069
243,997	0,08826
244,213	0,08891
244,43	0,10338
244,646	0,10154
244,863	0,09382
245,08	0,09509
245,296	0,09608
245,513	0,0951
245,729	0,09491
245,946	0,08471
246,162	0,08121
246,379	0,08522
246,595	0,08003
246,812	0,07809
247,028	0,07894
247,245	0,07337
247,461	0,06706
247,678	0,06737
247,894	0,08002
248,111	0,07984
248,327	0,08931
248,544	0,0928
248,76	0,09717
248,976	0,09912
249,193	0,09481
249,409	0,0934
249,626	0,09464
249,842	0,11049
250,058	0,10728
250,275	0,11117
250,491	0,10836
250,707	0,10906
250,924	0,10922
251,14	0,10096
251,356	0,10721
251,572	0,11403
251,789	0,1153
252,005	0,11354
252,221	0,10967
252,437	0,10769
252,654	0,09377
252,87	0,08592
253,086	0,08957
253,302	0,08157
253,518	0,08243
253,735	0,07743
253,951	0,07773
254,167	0,07755
254,383	0,07701
254,599	0,08368
254,815	0,0943
255,031	0,09099
255,247	0,09281
255,463	0,0792
255,68	0,08704
255,896	0,08299
256,112	0,0762
256,328	0,06922
256,544	0,07021
256,76	0,07714
256,976	0,06682
257,192	0,06249
257,408	0,06995
257,624	0,08091
257,84	0,08792
258,056	0,07471
258,272	0,07289
258,487	0,07079
258,703	0,06917
258,919	0,07358
259,135	0,07349
259,351	0,08398
259,567	0,08237
259,783	0,08267
259,999	0,07634
260,215	0,07771
260,43	0,0684
260,646	0,08062
260,862	0,0912
261,078	0,09783
261,294	0,07365
261,509	0,07032
261,725	0,06313
261,941	0,06761
262,157	0,07445
262,372	0,08374
262,588	0,06993
262,804	0,08889
263,019	0,08701
263,235	0,07675
263,451	0,07446
263,667	0,09625
263,882	0,10538
264,098	0,10724
264,313	0,10873
264,529	0,10673
264,745	0,10817
264,96	0,11584
265,176	0,11767
265,391	0,11202
265,607	0,12688
265,823	0,1244
266,038	0,12601
266,254	0,11294
266,469	0,11472
266,685	0,10498
266,9	0,09881
267,116	0,09353
267,331	0,10074
267,547	0,10255
267,762	0,10165
267,978	0,10087
268,193	0,10958
268,408	0,09777
268,624	0,10025
268,839	0,09251
269,055	0,09277
269,27	0,09216
269,485	0,0861
269,701	0,0807
269,916	0,0805
270,132	0,09112
270,347	0,09099
270,562	0,08635
270,777	0,09346
270,993	0,10065
271,208	0,11091
271,423	0,12135
271,639	0,12604
271,854	0,12445
272,069	0,12393
272,284	0,11298
272,5	0,10994
272,715	0,10547
272,93	0,09513
273,145	0,08539
273,36	0,0795
273,576	0,07448
273,791	0,07245
274,006	0,06991
274,221	0,07169
274,436	0,07724
274,651	0,07811
274,866	0,08444
275,081	0,09448
275,296	0,10056
275,512	0,09949
275,727	0,1148
275,942	0,10998
276,157	0,10673
276,372	0,10831
276,587	0,11664
276,802	0,1173
277,017	0,11114
277,232	0,10615
277,447	0,08886
277,662	0,08418
277,877	0,08124
278,092	0,06935
278,306	0,07792
278,521	0,0807
278,736	0,08253
278,951	0,07564
279,166	0,07006
279,381	0,07434
279,596	0,06648
279,811	0,07186
280,025	0,07611
280,24	0,07778
280,455	0,07965
280,67	0,07617
280,885	0,08129
281,099	0,0633
281,314	0,06927
281,529	0,07589
281,744	0,08354
281,959	0,08984
282,173	0,10004
282,388	0,11486
282,603	0,10603
282,817	0,10513
283,032	0,10522
283,247	0,08613
283,461	0,09574
283,676	0,09137
283,891	0,09725
284,105	0,09994
284,32	0,09485
284,535	0,0919
284,749	0,07793
284,964	0,10061
285,178	0,09622
285,393	0,10079
285,607	0,10435
285,822	0,1139
286,036	0,1131
286,251	0,09898
286,465	0,0969
286,68	0,0988
286,894	0,09886
287,109	0,10397
287,323	0,08121
287,538	0,09079
287,752	0,08422
287,967	0,09535
288,181	0,09048
288,396	0,10413
288,61	0,1142
288,824	0,10925
289,039	0,10701
289,253	0,10271
289,467	0,10093
289,682	0,10746
289,896	0,10067
290,11	0,10101
290,325	0,09894
290,539	0,09433
290,753	0,08997
290,968	0,08464
291,182	0,0774
291,396	0,0814
291,61	0,08612
291,825	0,08876
292,039	0,08551
292,253	0,0904
292,467	0,08873
292,681	0,0779
292,896	0,08542
293,11	0,07241
293,324	0,0727
293,538	0,08504
293,752	0,08962
293,966	0,08866
294,18	0,0815
294,394	0,07783
294,608	0,07947
294,823	0,08697
295,037	0,09334
295,251	0,09067
295,465	0,10754
295,679	0,11168
295,893	0,11043
296,107	0,10243
296,321	0,10338
296,535	0,1034
296,749	0,11601
296,963	0,10469
297,177	0,09104
297,391	0,08987
297,604	0,08292
297,818	0,07019
298,032	0,05625
298,246	0,04319
298,46	0,04079
298,674	0,03967
298,888	0,0435
299,102	0,04256
299,315	0,05059
299,529	0,05749
299,743	0,06354
299,957	0,06287
300,171	0,05657
300,385	0,07071
300,598	0,07682
300,812	0,08001
301,026	0,07811
301,24	0,08664
301,453	0,08859
301,667	0,08216
301,881	0,08442
302,094	0,0771
302,308	0,07836
302,522	0,09309
302,735	0,09282
302,949	0,09019
303,163	0,08743
303,376	0,08371
303,59	0,0839
303,803	0,0844
304,017	0,08843
304,231	0,09015
304,444	0,09731
304,658	0,10558
304,871	0,10286
305,085	0,09734
305,298	0,09843
305,512	0,09715
305,725	0,09983
305,939	0,09136
306,152	0,08707
306,366	0,07003
306,579	0,06542
306,793	0,07577
307,006	0,07525
307,22	0,06839
307,433	0,06201
307,646	0,0622
307,86	0,06645
308,073	0,07047
308,286	0,06829
308,5	0,07412
308,713	0,08691
308,926	0,09248
309,14	0,07452
309,353	0,06961
309,566	0,07177
309,78	0,07353
309,993	0,07961
310,206	0,07894
310,419	0,07308
310,633	0,07566
310,846	0,07598
311,059	0,07638
311,272	0,07042
311,486	0,07606
311,699	0,0774
311,912	0,07139
312,125	0,07991
312,338	0,07771
312,551	0,07795
312,764	0,08651
312,978	0,09032
313,191	0,09451
313,404	0,08414
313,617	0,07699
313,83	0,07305
314,043	0,07891
314,256	0,07674
314,469	0,06521
314,682	0,06238
314,895	0,0591
315,108	0,05805
315,321	0,04743
315,534	0,0294
315,747	0,0453
315,96	0,05959
316,173	0,05465
316,386	0,05206
316,599	0,06325
316,812	0,06968
317,025	0,07154
317,237	0,07277
317,45	0,06407
317,663	0,07074
317,876	0,08294
318,089	0,08529
318,302	0,069
318,515	0,07396
318,727	0,06404
318,94	0,06303
319,153	0,05986
319,366	0,06688
319,578	0,06292
319,791	0,07107
320,004	0,06646
320,217	0,07109
320,429	0,06185
320,642	0,072
320,855	0,07188
321,067	0,07743
321,28	0,07194
321,493	0,07943
321,705	0,0704
321,918	0,07537
322,131	0,07048
322,343	0,06655
322,556	0,06573
322,768	0,0647
322,981	0,0628
323,194	0,0656
323,406	0,05661
323,619	0,05801
323,831	0,05524
324,044	0,06495
324,256	0,06245
324,469	0,05611
324,681	0,06359
324,894	0,06437
325,106	0,0696
325,319	0,06699
325,531	0,07257
325,743	0,07995
325,956	0,08157
326,168	0,08124
326,381	0,07797
326,593	0,07133
326,805	0,08001
327,018	0,08588
327,23	0,07346
327,442	0,07975
327,655	0,07283
327,867	0,05873
328,079	0,05583
328,292	0,05286
328,504	0,06023
328,716	0,05436
328,928	0,06973
329,141	0,06901
329,353	0,05507
329,565	0,0626
329,777	0,06231
329,99	0,07352
330,202	0,08081
330,414	0,07498
330,626	0,0778
330,838	0,07602
331,05	0,07242
331,263	0,054
331,475	0,05245
331,687	0,06228
331,899	0,06979
332,111	0,0598
332,323	0,05876
332,535	0,05757
332,747	0,07446
332,959	0,0691
333,171	0,06494
333,383	0,07024
333,595	0,07824
333,807	0,0843
334,019	0,07654
334,231	0,06322
334,443	0,06213
334,655	0,06205
334,867	0,06201
335,079	0,05254
335,291	0,04785
335,503	0,05102
335,714	0,04467
335,926	0,05179
336,138	0,04449
336,35	0,04342
336,562	0,04927
336,774	0,05672
336,986	0,05932
337,197	0,05647
337,409	0,05627
337,621	0,06019
337,833	0,0564
338,044	0,07029
338,256	0,06455
338,468	0,06737
338,68	0,071
338,891	0,06581
339,103	0,05749
339,315	0,04912
339,526	0,05246
339,738	0,04812
339,95	0,04654
340,161	0,0559
340,373	0,03996
340,585	0,03469
340,796	0,03561
341,008	0,03352
341,219	0,03818
341,431	0,0449
341,642	0,05232
341,854	0,055
342,065	0,06221
342,277	0,06268
342,489	0,05353
342,7	0,07054
342,912	0,08042
343,123	0,08552
343,334	0,09274
343,546	0,08318
343,757	0,08367
343,969	0,07652
344,18	0,07035
344,392	0,06396
344,603	0,07487
344,814	0,0767
345,026	0,0717
345,237	0,06535
345,448	0,05379
345,66	0,05021
345,871	0,0653
346,082	0,06671
346,294	0,06899
346,505	0,07145
346,716	0,07363
346,927	0,0676
347,139	0,0702
347,35	0,06842
347,561	0,06878
347,772	0,07077
347,984	0,07293
348,195	0,07654
348,406	0,06884
348,617	0,07516
348,828	0,07474
349,039	0,06984
349,251	0,07085
349,462	0,06833
349,673	0,06162
349,884	0,06403
350,095	0,05991
350,306	0,05896
350,517	0,05247
350,728	0,05206
350,939	0,04824
351,15	0,04638
351,361	0,05184
351,572	0,0623
351,783	0,06299
351,994	0,06465
352,205	0,06896
352,416	0,07099
352,627	0,07023
352,838	0,07102
353,049	0,08131
353,26	0,08467
353,471	0,08802
353,682	0,08454
353,893	0,08056
354,103	0,07689
354,314	0,06971
354,525	0,07084
354,736	0,07758
354,947	0,07291
355,157	0,07173
355,368	0,06606
355,579	0,06321
355,79	0,06192
356,001	0,06213
356,211	0,05572
356,422	0,04828
356,633	0,0581
356,843	0,05236
357,054	0,04668
357,265	0,05749
357,476	0,05943
357,686	0,05684
357,897	0,05543
358,107	0,05314
358,318	0,0527
358,529	0,05912
358,739	0,07223
358,95	0,06905
359,16	0,06822
359,371	0,0655
359,582	0,05281
359,792	0,04894
360,003	0,04985
360,213	0,05034
360,424	0,05196
360,634	0,06312
360,845	0,05386
361,055	0,05156
361,266	0,05854
361,476	0,06563
361,686	0,06288
361,897	0,06957
362,107	0,07791
362,318	0,07935
362,528	0,08307
362,738	0,08496
362,949	0,07453
363,159	0,0819
363,369	0,0787
363,58	0,06874
363,79	0,06317
364	0,07028
364,211	0,06919
364,421	0,06095
364,631	0,06486
364,842	0,05621
365,052	0,05237
365,262	0,05394
365,472	0,05183
365,682	0,05672
365,893	0,05913
366,103	0,06759
366,313	0,06508
366,523	0,06564
366,733	0,06407
366,943	0,06322
367,154	0,0696
367,364	0,07921
367,574	0,07866
367,784	0,07868
367,994	0,07525
368,204	0,08042
368,414	0,07211
368,624	0,06992
368,834	0,07118
369,044	0,07554
369,254	0,07265
369,464	0,07009
369,674	0,06327
369,884	0,05605
370,094	0,05459
370,304	0,05514
370,514	0,05383
370,724	0,04955
370,934	0,05075
371,144	0,05002
371,353	0,04488
371,563	0,04664
371,773	0,04861
371,983	0,04979
372,193	0,05801
372,403	0,06365
372,612	0,05945
372,822	0,05667
373,032	0,05952
373,242	0,06261
373,452	0,06151
373,661	0,06586
373,871	0,06183
374,081	0,06148
374,29	0,06442
374,5	0,06066
374,71	0,05386
374,92	0,05513
375,129	0,05323
375,339	0,05246
375,549	0,04613
375,758	0,04986
375,968	0,04694
376,177	0,0466
376,387	0,04554
376,597	0,04168
376,806	0,04877
377,016	0,05203
377,225	0,04825
377,435	0,04845
377,644	0,04538
377,854	0,04815
378,063	0,04568
378,273	0,04602
378,482	0,05013
378,692	0,04798
378,901	0,04754
379,111	0,04438
379,32	0,04142
379,529	0,04296
379,739	0,04614
379,948	0,0469
380,158	0,05227
380,367	0,05419
380,576	0,05492
380,786	0,04596
380,995	0,04842
381,204	0,04919
381,414	0,04897
381,623	0,04882
381,832	0,05246
382,041	0,04933
382,251	0,05141
382,46	0,04796
382,669	0,04498
382,878	0,04367
383,088	0,04735
383,297	0,04592
383,506	0,04854
383,715	0,04728
383,924	0,04807
384,133	0,04559
384,342	0,04782
384,552	0,05101
384,761	0,05136
384,97	0,05277
385,179	0,05415
385,388	0,05643
385,597	0,05643
385,806	0,05695
386,015	0,05318
386,224	0,05329
386,433	0,05647
386,642	0,05206
386,851	0,05055
387,06	0,04739
387,269	0,04721
387,478	0,04545
387,687	0,04525
387,896	0,04253
388,105	0,03824
388,314	0,03839
388,523	0,03504
388,731	0,03411
388,94	0,03957
389,149	0,03574
389,358	0,03894
389,567	0,03862
389,776	0,037
389,984	0,03683
390,193	0,03882
390,402	0,03639
390,611	0,0387
390,819	0,03971
391,028	0,03861
391,237	0,03469
391,446	0,03606
391,654	0,0348
391,863	0,03263
392,072	0,03288
392,28	0,03307
392,489	0,03199
392,698	0,03321
392,906	0,03259
393,115	0,03187
393,324	0,034
393,532	0,03469
393,741	0,03379
393,949	0,03076
394,158	0,03197
394,366	0,03291
394,575	0,03194
394,783	0,03067
394,992	0,03075
395,2	0,02935
395,409	0,03174
395,617	0,02677
395,826	0,02631
396,034	0,02292
396,243	0,0258
396,451	0,02717
396,66	0,03001
396,868	0,02735
397,076	0,02578
397,285	0,0254
397,493	0,02715
397,701	0,02655
397,91	0,02443
398,118	0,02415
398,326	0,02712
398,535	0,02428
398,743	0,0213
398,951	0,01928
399,159	0,02175
399,368	0,02829
399,576	0,02984
399,784	0,02985
399,992	0,02826
400,201	0,03051
400,409	0,02799
400,617	0,02791
400,825	0,02998
401,033	0,033
401,241	0,03375
401,45	0,03373
401,658	0,03231
401,866	0,03269
402,074	0,0323
402,282	0,03515
402,49	0,03554
402,698	0,03927
402,906	0,03909
403,114	0,03652
403,322	0,03418
403,53	0,03196
403,738	0,03068
403,946	0,02655
404,154	0,02322
404,362	0,02241
404,57	0,02102
404,778	0,01992
404,986	0,02097
405,194	0,02176
405,402	0,0241
405,609	0,02302
405,817	0,02085
406,025	0,02414
406,233	0,02558
406,441	0,02886
406,649	0,02794
406,856	0,02644
407,064	0,02778
407,272	0,02498
407,48	0,02416
407,687	0,0253
407,895	0,02703
408,103	0,02897
408,311	0,02749
408,518	0,02503
408,726	0,02432
408,934	0,02662
409,141	0,02708
409,349	0,02345
409,557	0,02596
409,764	0,02575
409,972	0,02418
410,18	0,02071
410,387	0,02011
410,595	0,01846
410,802	0,01843
411,01	0,0176
411,217	0,01546
411,425	0,01634
411,632	0,01795
411,84	0,01731
412,047	0,01421
412,255	0,01315
412,462	0,01668
412,67	0,01824
412,877	0,01887
413,085	0,0209
413,292	0,02085
413,499	0,0213
413,707	0,01998
413,914	0,02066
414,122	0,01792
414,329	0,02066
414,536	0,02126
414,744	0,02057
414,951	0,01982
415,158	0,01831
415,366	0,01796
415,573	0,01932
415,78	0,02051
415,987	0,01999
416,195	0,02128
416,402	0,02203
416,609	0,02265
416,816	0,02303
417,023	0,02243
417,231	0,02316
417,438	0,02506
417,645	0,0241
417,852	0,02135
418,059	0,02141
418,266	0,02162
418,473	0,02113
418,68	0,02228
418,888	0,02092
419,095	0,02066
419,302	0,0206
419,509	0,01881
419,716	0,01751
419,923	0,01819
420,13	0,01957
420,337	0,01954
420,544	0,02043
420,751	0,01959
420,958	0,01952
421,165	0,02175
421,371	0,02082
421,578	0,02066
421,785	0,02176
421,992	0,02255
422,199	0,02256
422,406	0,02261
422,613	0,02135
422,82	0,02146
423,026	0,02129
423,233	0,021
423,44	0,018
423,647	0,01894
423,854	0,01829
424,06	0,01754
424,267	0,01683
424,474	0,01689
424,681	0,01645
424,887	0,01645
425,094	0,0155
425,301	0,01727
425,507	0,01569
425,714	0,01709
425,921	0,01759
426,127	0,01824
426,334	0,01872
426,54	0,01895
426,747	0,01975
426,954	0,01914
427,16	0,01889
427,367	0,01974
427,573	0,01875
427,78	0,01924
427,986	0,0189
428,193	0,01776
428,399	0,01903
428,606	0,01799
428,812	0,01769
429,019	0,01614
429,225	0,01615
429,432	0,01698
429,638	0,01656
429,845	0,01557
430,051	0,01648
430,257	0,015
430,464	0,01546
430,67	0,01512
430,876	0,01592
431,083	0,01677
431,289	0,01804
431,495	0,02008
431,702	0,01989
431,908	0,01879
432,114	0,01846
432,32	0,01804
432,527	0,01925
432,733	0,01948
432,939	0,01827
433,145	0,01922
433,351	0,01946
433,558	0,02047
433,764	0,01927
433,97	0,01803
434,176	0,01831
434,382	0,02002
434,588	0,0193
434,794	0,01871
435,001	0,01905
435,207	0,01853
435,413	0,01667
435,619	0,01599
435,825	0,0147
436,031	0,01496
436,237	0,0163
436,443	0,01803
436,649	0,01829
436,855	0,01898
437,061	0,0198
437,267	0,01886
437,473	0,01962
437,679	0,02128
437,884	0,02078
438,09	0,01975
438,296	0,01817
438,502	0,01737
438,708	0,01601
438,914	0,01479
439,12	0,0153
439,325	0,01601
439,531	0,01714
439,737	0,01723
439,943	0,01635
440,149	0,01737
440,354	0,0191
440,56	0,01934
440,766	0,01993
440,972	0,02071
441,177	0,02191
441,383	0,02229
441,589	0,02196
441,794	0,0217
442	0,02168
442,206	0,0223
442,411	0,02181
442,617	0,02172
442,822	0,02314
443,028	0,0223
443,234	0,02263
443,439	0,02227
443,645	0,0216
443,85	0,02143
444,056	0,02097
444,261	0,02134
444,467	0,02183
444,672	0,02189
444,878	0,02182
445,083	0,022
445,289	0,02294
445,494	0,02242
445,699	0,0221
445,905	0,02284
446,11	0,02321
446,316	0,02337
446,521	0,02293
446,726	0,02292
446,932	0,02303
447,137	0,02342
447,342	0,02324
447,548	0,02232
447,753	0,02222
447,958	0,02236
448,164	0,02112
448,369	0,02095
448,574	0,02028
448,779	0,02039
448,984	0,01993
449,19	0,01999
449,395	0,01983
449,6	0,01978
449,805	0,02036
450,01	0,02065
450,215	0,02063
450,421	0,02259
450,626	0,02305
450,831	0,02287
451,036	0,02287
451,241	0,02345
451,446	0,02295
451,651	0,02321
451,856	0,02327
452,061	0,02407
452,266	0,02458
452,471	0,02616
452,676	0,02545
452,881	0,0254
453,086	0,02732
453,291	0,0285
453,496	0,02788
453,701	0,02875
453,906	0,0286
454,111	0,02831
454,316	0,02836
454,52	0,02808
454,725	0,02658
454,93	0,02644
455,135	0,02677
455,34	0,02611
455,545	0,02563
455,749	0,02613
455,954	0,02534
456,159	0,02518
456,364	0,02663
456,568	0,02703
456,773	0,0275
456,978	0,02922
457,182	0,03029
457,387	0,03063
457,592	0,03127
457,796	0,03088
458,001	0,03131
458,206	0,03194
458,41	0,03198
458,615	0,03158
458,82	0,03142
459,024	0,03173
459,229	0,0312
459,433	0,0306
459,638	0,03105
459,842	0,03127
460,047	0,03175
460,251	0,03168
460,456	0,03187
460,66	0,03262
460,865	0,03279
461,069	0,03303
461,274	0,03327
461,478	0,03286
461,682	0,03314
461,887	0,03303
462,091	0,03345
462,296	0,03447
462,5	0,03447
462,704	0,03527
462,909	0,0348
463,113	0,03459
463,317	0,03452
463,522	0,0351
463,726	0,03617
463,93	0,03626
464,134	0,03649
464,339	0,03636
464,543	0,03632
464,747	0,03654
464,951	0,03681
465,155	0,03758
465,36	0,03878
465,564	0,03898
465,768	0,0384
465,972	0,03905
466,176	0,03933
466,38	0,0391
466,584	0,03973
466,788	0,03923
466,993	0,0396
467,197	0,03936
467,401	0,03963
467,605	0,03927
467,809	0,04024
468,013	0,04169
468,217	0,04131
468,421	0,04142
468,625	0,04177
468,829	0,04175
469,033	0,04239
469,236	0,04326
469,44	0,04349
469,644	0,04321
469,848	0,04308
470,052	0,04335
470,256	0,04224
470,46	0,0423
470,664	0,04291
470,867	0,04365
471,071	0,04408
471,275	0,0446
471,479	0,04467
471,683	0,04536
471,886	0,04647
472,09	0,04711
472,294	0,04748
472,497	0,04855
472,701	0,04895
472,905	0,04954
473,109	0,05005
473,312	0,05028
473,516	0,05084
473,719	0,05104
473,923	0,05105
474,127	0,05121
474,33	0,05135
474,534	0,05126
474,737	0,05169
474,941	0,05228
475,145	0,05194
475,348	0,0519
475,552	0,05247
475,755	0,05248
475,959	0,05315
476,162	0,05385
476,366	0,05422
476,569	0,0547
476,772	0,05552
476,976	0,05548
477,179	0,05581
477,383	0,05661
477,586	0,05697
477,789	0,05692
477,993	0,05771
478,196	0,0579
478,399	0,05819
478,603	0,05851
478,806	0,05921
479,009	0,05943
479,213	0,05976
479,416	0,05992
479,619	0,0603
479,822	0,06095
480,026	0,06181
480,229	0,06182
480,432	0,06223
480,635	0,06275
480,838	0,06345
481,041	0,06347
481,245	0,0636
481,448	0,06384
481,651	0,06446
481,854	0,0649
482,057	0,06492
482,26	0,0652
482,463	0,06586
482,666	0,06669
482,869	0,06705
483,072	0,06732
483,275	0,06809
483,478	0,06836
483,681	0,06932
483,884	0,06983
484,087	0,0705
484,29	0,07133
484,493	0,07178
484,696	0,07207
484,899	0,07246
485,102	0,07306
485,305	0,07336
485,508	0,07376
485,71	0,07472
485,913	0,07535
486,116	0,07573
486,319	0,07633
486,522	0,07675
486,725	0,07697
486,927	0,0777
487,13	0,07794
487,333	0,07872
487,536	0,07944
487,738	0,08018
487,941	0,0807
488,144	0,08136
488,346	0,08208
488,549	0,08245
488,752	0,08321
488,954	0,08427
489,157	0,08468
489,359	0,08524
489,562	0,08536
489,765	0,08582
489,967	0,08648
490,17	0,08728
490,372	0,08769
490,575	0,08829
490,777	0,08896
490,98	0,08928
491,182	0,0895
491,385	0,09008
491,587	0,09108
491,79	0,09194
491,992	0,09253
492,195	0,09309
492,397	0,09329
492,599	0,09395
492,802	0,09443
493,004	0,09523
493,207	0,09587
493,409	0,09673
493,611	0,09733
493,814	0,09769
494,016	0,09829
494,218	0,09902
494,42	0,09969
494,623	0,10059
494,825	0,10125
495,027	0,102
495,229	0,10242
495,432	0,1031
495,634	0,10383
495,836	0,10466
496,038	0,10536
496,24	0,10595
496,442	0,10656
496,645	0,10727
496,847	0,10784
497,049	0,10836
497,251	0,109
497,453	0,10963
497,655	0,1106
497,857	0,11149
498,059	0,11255
498,261	0,1133
498,463	0,11426
498,665	0,11529
498,867	0,11583
499,069	0,1168
499,271	0,11738
499,473	0,11833
499,675	0,11921
499,877	0,1197
500,079	0,12021
500,281	0,12054
500,482	0,12128
500,684	0,12218
500,886	0,12281
501,088	0,12366
501,29	0,12437
501,492	0,12533
501,693	0,12611
501,895	0,12708
502,097	0,12809
502,299	0,12879
502,5	0,12968
502,702	0,13046
502,904	0,13136
503,106	0,13225
503,307	0,13309
503,509	0,13383
503,711	0,13477
503,912	0,1357
504,114	0,13631
504,315	0,13707
504,517	0,13799
504,719	0,13893
504,92	0,13969
505,122	0,14041
505,323	0,14103
505,525	0,14192
505,726	0,14284
505,928	0,14371
506,129	0,14443
506,331	0,14533
506,532	0,14625
506,734	0,14716
506,935	0,14804
507,137	0,14892
507,338	0,1495
507,539	0,15055
507,741	0,15181
507,942	0,15278
508,143	0,15366
508,345	0,15461
508,546	0,15567
508,747	0,15674
508,949	0,15789
509,15	0,15864
509,351	0,15966
509,553	0,16068
509,754	0,16184
509,955	0,16252
510,156	0,1637
510,357	0,16463
510,559	0,16555
510,76	0,16667
510,961	0,16778
511,162	0,1687
511,363	0,16982
511,564	0,17085
511,766	0,17202
511,967	0,17307
512,168	0,17419
512,369	0,17513
512,57	0,17623
512,771	0,17758
512,972	0,17852
513,173	0,17942
513,374	0,18036
513,575	0,18145
513,776	0,18257
513,977	0,1834
514,178	0,18418
514,379	0,18508
514,58	0,18612
514,781	0,18752
514,981	0,18861
515,182	0,18947
515,383	0,19071
515,584	0,19178
515,785	0,19282
515,986	0,19413
516,187	0,19554
516,387	0,19672
516,588	0,19799
516,789	0,19897
516,99	0,19988
517,19	0,20091
517,391	0,20218
517,592	0,20335
517,793	0,20456
517,993	0,20602
518,194	0,20714
518,395	0,20812
518,595	0,20927
518,796	0,21042
518,996	0,21142
519,197	0,21263
519,398	0,2136
519,598	0,21491
519,799	0,21584
519,999	0,21701
520,2	0,21817
520,4	0,21908
520,601	0,22036
520,801	0,22145
521,002	0,22247
521,202	0,22388
521,403	0,22493
521,603	0,22616
521,804	0,22698
522,004	0,22829
522,204	0,22938
522,405	0,23006
522,605	0,23136
522,806	0,23234
523,006	0,2335
523,206	0,23459
523,407	0,23584
523,607	0,23706
523,807	0,23805
524,007	0,23931
524,208	0,24014
524,408	0,24134
524,608	0,24278
524,808	0,24384
525,009	0,24516
525,209	0,24646
525,409	0,2476
525,609	0,24848
525,809	0,24963
526,009	0,25076
526,209	0,25204
526,41	0,25333
526,61	0,25467
526,81	0,25566
527,01	0,25675
527,21	0,25758
527,41	0,25865
527,61	0,2596
527,81	0,26075
528,01	0,26169
528,21	0,26297
528,41	0,26399
528,61	0,26509
528,81	0,26596
529,01	0,2672
529,21	0,26834
529,41	0,26948
529,609	0,27033
529,809	0,27153
530,009	0,27268
530,209	0,27359
530,409	0,27427
530,609	0,27527
530,808	0,27626
531,008	0,27725
531,208	0,27795
531,408	0,27897
531,608	0,28004
531,807	0,28082
532,007	0,28197
532,207	0,28271
532,406	0,28393
532,606	0,28518
532,806	0,28618
533,005	0,28735
533,205	0,28832
533,405	0,28939
533,604	0,29043
533,804	0,29134
534,003	0,29253
534,203	0,29335
534,403	0,29422
534,602	0,2949
534,802	0,29568
535,001	0,29643
535,201	0,29695
535,4	0,29777
535,6	0,2986
535,799	0,29932
535,998	0,30011
536,198	0,30095
536,397	0,30171
536,597	0,30243
536,796	0,30345
536,995	0,30434
537,195	0,30504
537,394	0,30592
537,594	0,30687
537,793	0,30785
537,992	0,30867
538,191	0,30961
538,391	0,31045
538,59	0,3111
538,789	0,31212
538,988	0,31266
539,188	0,31327
539,387	0,31424
539,586	0,31508
539,785	0,3154
539,984	0,31606
540,184	0,31673
540,383	0,31764
540,582	0,31848
540,781	0,31953
540,98	0,32032
541,179	0,32116
541,378	0,32183
541,577	0,32234
541,776	0,32315
541,975	0,32409
542,174	0,32472
542,373	0,32534
542,572	0,32584
542,771	0,32626
542,97	0,32654
543,169	0,32693
543,368	0,32744
543,567	0,328
543,766	0,32855
543,965	0,32888
544,164	0,32945
544,362	0,33018
544,561	0,3307
544,76	0,33111
544,959	0,33156
545,158	0,33221
545,356	0,33269
545,555	0,33333
545,754	0,33408
545,953	0,33478
546,151	0,33543
546,35	0,33572
546,549	0,33592
546,748	0,33634
546,946	0,33666
547,145	0,3372
547,344	0,33757
547,542	0,33789
547,741	0,33811
547,939	0,33835
548,138	0,33828
548,337	0,33837
548,535	0,33876
548,734	0,33904
548,932	0,3393
549,131	0,33968
549,329	0,33996
549,528	0,34039
549,726	0,34085
549,925	0,34128
550,123	0,34159
550,322	0,34224
550,52	0,34276
550,718	0,34321
550,917	0,34351
551,115	0,34377
551,313	0,34414
551,512	0,34465
551,71	0,3449
551,908	0,34531
552,107	0,34587
552,305	0,34635
552,503	0,3468
552,702	0,34708
552,9	0,34739
553,098	0,34782
553,296	0,34831
553,495	0,34878
553,693	0,34903
553,891	0,34945
554,089	0,34984
554,287	0,35001
554,485	0,3504
554,683	0,35052
554,882	0,35086
555,08	0,35132
555,278	0,35177
555,476	0,35224
555,674	0,35249
555,872	0,3529
556,07	0,35308
556,268	0,35329
556,466	0,3537
556,664	0,35401
556,862	0,35467
557,06	0,35523
557,258	0,35575
557,456	0,35641
557,654	0,35681
557,851	0,35731
558,049	0,35761
558,247	0,35832
558,445	0,35912
558,643	0,35937
558,841	0,35999
559,039	0,36049
559,236	0,36089
559,434	0,36131
559,632	0,36147
559,83	0,36207
560,027	0,36256
560,225	0,36325
560,423	0,36382
560,62	0,36418
560,818	0,36481
561,016	0,36519
561,213	0,36575
561,411	0,36631
561,609	0,36678
561,806	0,36752
562,004	0,36792
562,202	0,36844
562,399	0,36899
562,597	0,3695
562,794	0,37001
562,992	0,37063
563,189	0,37122
563,387	0,37161
563,584	0,37232
563,782	0,37294
563,979	0,37351
564,177	0,37424
564,374	0,37497
564,571	0,37577
564,769	0,37642
564,966	0,37706
565,164	0,37788
565,361	0,37847
565,558	0,37928
565,756	0,38
565,953	0,38082
566,15	0,38161
566,347	0,38228
566,545	0,38313
566,742	0,3838
566,939	0,38461
567,136	0,38558
567,334	0,38633
567,531	0,38719
567,728	0,38817
567,925	0,389
568,122	0,38979
568,319	0,39065
568,517	0,3916
568,714	0,39233
568,911	0,39316
569,108	0,39412
569,305	0,39497
569,502	0,39587
569,699	0,39694
569,896	0,39771
570,093	0,39858
570,29	0,39942
570,487	0,40027
570,684	0,4014
570,881	0,40257
571,078	0,40369
571,275	0,40484
571,472	0,40583
571,669	0,40676
571,866	0,40761
572,062	0,40852
572,259	0,40946
572,456	0,41058
572,653	0,41155
572,85	0,41241
573,047	0,41341
573,243	0,41426
573,44	0,41523
573,637	0,41641
573,834	0,4177
574,03	0,41898
574,227	0,42018
574,424	0,42149
574,62	0,4225
574,817	0,42383
575,014	0,42487
575,21	0,42587
575,407	0,42702
575,604	0,42803
575,8	0,42934
575,997	0,43048
576,193	0,43144
576,39	0,43257
576,586	0,43354
576,783	0,43474
576,979	0,43575
577,176	0,43699
577,372	0,4382
577,569	0,43939
577,765	0,44051
577,962	0,44132
578,158	0,44235
578,355	0,44347
578,551	0,44472
578,747	0,44593
578,944	0,44712
579,14	0,44839
579,336	0,44963
579,533	0,4507
579,729	0,45169
579,925	0,4528
580,122	0,45393
580,318	0,45504
580,514	0,45613
580,71	0,45717
580,906	0,45821
581,103	0,45913
581,299	0,4599
581,495	0,46065
581,691	0,46159
581,887	0,46286
582,084	0,46393
582,28	0,46489
582,476	0,46579
582,672	0,46671
582,868	0,46762
583,064	0,46859
583,26	0,46942
583,456	0,47025
583,652	0,47114
583,848	0,47229
584,044	0,47285
584,24	0,47331
584,436	0,47418
584,632	0,4747
584,828	0,47536
585,024	0,47586
585,22	0,47649
585,416	0,47722
585,611	0,47796
585,807	0,47846
586,003	0,47882
586,199	0,47942
586,395	0,48014
586,591	0,48049
586,786	0,48125
586,982	0,48175
587,178	0,48225
587,374	0,48243
587,569	0,48273
587,765	0,48307
587,961	0,48344
588,156	0,48363
588,352	0,48382
588,548	0,48383
588,743	0,48416
588,939	0,48388
589,135	0,48384
589,33	0,48374
589,526	0,48363
589,721	0,4834
589,917	0,48317
590,112	0,48297
590,308	0,48259
590,503	0,48241
590,699	0,48226
590,894	0,48182
591,09	0,48166
591,285	0,48138
591,481	0,48122
591,676	0,48096
591,872	0,48083
592,067	0,48035
592,262	0,47988
592,458	0,47939
592,653	0,47872
592,848	0,47811
593,044	0,47747
593,239	0,47684
593,434	0,4764
593,629	0,47554
593,825	0,47478
594,02	0,47379
594,215	0,47309
594,41	0,47233
594,606	0,47136
594,801	0,47042
594,996	0,46942
595,191	0,46844
595,386	0,46721
595,581	0,4658
595,777	0,46468
595,972	0,46344
596,167	0,46228
596,362	0,46092
596,557	0,45948
596,752	0,45824
596,947	0,45691
597,142	0,45531
597,337	0,45365
597,532	0,45214
597,727	0,45061
597,922	0,44888
598,117	0,44718
598,312	0,4454
598,507	0,44354
598,701	0,44173
598,896	0,43996
599,091	0,438
599,286	0,43627
599,481	0,43419
599,676	0,43229
599,87	0,43016
600,065	0,42809
600,26	0,42618
600,455	0,424
600,65	0,42192
600,844	0,41983
601,039	0,41757
601,234	0,41526
601,428	0,41316
601,623	0,41111
601,818	0,40893
602,012	0,40695
602,207	0,40465
602,402	0,40233
602,596	0,39992
602,791	0,39764
602,985	0,39537
603,18	0,39288
603,374	0,39053
603,569	0,38806
603,763	0,38554
603,958	0,38323
604,152	0,38062
604,347	0,37805
604,541	0,37551
604,736	0,37316
604,93	0,37056
605,125	0,36771
605,319	0,36535
605,513	0,36275
605,708	0,36019
605,902	0,35766
606,096	0,35492
606,291	0,35225
606,485	0,34972
606,679	0,3471
606,874	0,34436
607,068	0,34171
607,262	0,33921
607,456	0,3364
607,65	0,33373
607,845	0,33088
608,039	0,32821
608,233	0,32549
608,427	0,3228
608,621	0,32011
608,815	0,31747
609,01	0,31491
609,204	0,31215
609,398	0,30957
609,592	0,30694
609,786	0,30438
609,98	0,30183
610,174	0,29925
610,368	0,29663
610,562	0,29397
610,756	0,29138
610,95	0,2887
611,144	0,28611
611,338	0,28344
611,532	0,28056
611,726	0,27785
611,919	0,27523
612,113	0,27256
612,307	0,26981
612,501	0,26709
612,695	0,2645
612,889	0,26182
613,082	0,25903
613,276	0,25633
613,47	0,25391
613,664	0,25143
613,857	0,2488
614,051	0,24626
614,245	0,24365
614,439	0,24116
614,632	0,23877
614,826	0,23606
615,02	0,23352
615,213	0,23116
615,407	0,22877
615,6	0,22616
615,794	0,22371
615,988	0,22127
616,181	0,21877
616,375	0,21647
616,568	0,21404
616,762	0,21164
616,955	0,20943
617,149	0,20709
617,342	0,20472
617,536	0,20239
617,729	0,20019
617,923	0,19802
618,116	0,19585
618,309	0,19359
618,503	0,19133
618,696	0,18913
618,889	0,18683
619,083	0,18447
619,276	0,18223
619,469	0,18003
619,663	0,17784
619,856	0,1757
620,049	0,17357
620,242	0,17152
620,436	0,1694
620,629	0,16743
620,822	0,1655
621,015	0,16352
621,209	0,16174
621,402	0,15985
621,595	0,15795
621,788	0,15604
621,981	0,15423
622,174	0,1522
622,367	0,15023
622,56	0,14833
622,753	0,14636
622,946	0,14431
623,139	0,14258
623,332	0,14077
623,525	0,13898
623,718	0,13719
623,911	0,13541
624,104	0,13352
624,297	0,1319
624,49	0,13037
624,683	0,12883
624,876	0,12723
625,069	0,1256
625,262	0,124
625,454	0,12241
625,647	0,12088
625,84	0,11922
626,033	0,11768
626,226	0,11624
626,418	0,11468
626,611	0,11313
626,804	0,11165
626,997	0,11009
627,189	0,10868
627,382	0,10704
627,575	0,10567
627,767	0,10429
627,96	0,10296
628,153	0,10151
628,345	0,10006
628,538	0,09875
628,731	0,09739
628,923	0,09589
629,116	0,09475
629,308	0,09341
629,501	0,09222
629,693	0,09093
629,886	0,08963
630,078	0,08836
630,271	0,08725
630,463	0,08611
630,656	0,08497
630,848	0,0838
631,04	0,0828
631,233	0,0816
631,425	0,08052
631,617	0,07936
631,81	0,0782
632,002	0,07709
632,194	0,07607
632,387	0,07498
632,579	0,0739
632,771	0,07272
632,964	0,07167
633,156	0,0706
633,348	0,06941
633,54	0,0685
633,732	0,06752
633,925	0,06669
634,117	0,06586
634,309	0,06492
634,501	0,06403
634,693	0,06306
634,885	0,06222
635,077	0,06127
635,269	0,06034
635,462	0,05966
635,654	0,05872
635,846	0,058
636,038	0,05706
636,23	0,05616
636,422	0,05536
636,614	0,05456
636,806	0,05386
636,997	0,05317
637,189	0,05249
637,381	0,05178
637,573	0,05105
637,765	0,05032
637,957	0,0495
638,149	0,04882
638,341	0,04821
638,532	0,04755
638,724	0,04679
638,916	0,04614
639,108	0,04546
639,299	0,04479
639,491	0,04415
639,683	0,04364
639,875	0,04309
640,066	0,04253
640,258	0,04178
640,45	0,04108
640,641	0,04056
640,833	0,04016
641,025	0,0396
641,216	0,039
641,408	0,03842
641,599	0,03798
641,791	0,03736
641,982	0,03676
642,174	0,03616
642,366	0,03575
642,557	0,03524
642,748	0,03453
642,94	0,03392
643,131	0,03335
643,323	0,0329
643,514	0,03246
643,706	0,03191
643,897	0,03139
644,088	0,03099
644,28	0,0306
644,471	0,03013
644,662	0,02973
644,854	0,02941
645,045	0,02898
645,236	0,02859
645,428	0,02814
645,619	0,0277
645,81	0,02741
646,001	0,02699
646,193	0,02664
646,384	0,02623
646,575	0,02588
646,766	0,02553
646,957	0,02513
647,148	0,02469
647,339	0,02443
647,531	0,0242
647,722	0,02385
647,913	0,02343
648,104	0,0231
648,295	0,02276
648,486	0,02242
648,677	0,02205
648,868	0,02175
649,059	0,02145
649,25	0,02123
649,441	0,02094
649,632	0,02048
649,823	0,02028
650,013	0,02
650,204	0,01971
650,395	0,01922
650,586	0,019
650,777	0,01881
650,968	0,0185
651,159	0,0183
651,349	0,01791
651,54	0,01753
651,731	0,01725
651,922	0,01693
652,112	0,01663
652,303	0,01636
652,494	0,01634
652,684	0,0161
652,875	0,01586
653,066	0,01567
653,256	0,01544
653,447	0,01525
653,638	0,01505
653,828	0,01486
654,019	0,01467
654,209	0,01444
654,4	0,01428
654,59	0,01401
654,781	0,01382
654,972	0,01358
655,162	0,01332
655,352	0,01304
655,543	0,0129
655,733	0,01271
655,924	0,01263
656,114	0,0124
656,305	0,01225
656,495	0,01208
656,685	0,01187
656,876	0,01171
657,066	0,01153
657,256	0,01145
657,447	0,01137
657,637	0,01125
657,827	0,01112
658,017	0,01098
658,208	0,01079
658,398	0,01061
658,588	0,01053
658,778	0,01044
658,968	0,0103
659,159	0,01011
659,349	0,00997
659,539	0,00983
659,729	0,0097
659,919	0,0096
660,109	0,00938
660,299	0,00937
660,489	0,0093
660,679	0,00912
660,869	0,00902
661,059	0,00895
661,249	0,00875
661,439	0,00855
661,629	0,00842
661,819	0,00835
662,009	0,0082
662,199	0,00813
662,389	0,00791
662,579	0,00783
662,769	0,00773
662,959	0,00759
663,149	0,00746
663,338	0,0075
663,528	0,0075
663,718	0,0074
663,908	0,0071
664,097	0,00696
664,287	0,00688
664,477	0,00686
664,667	0,0067
664,856	0,00661
665,046	0,00649
665,236	0,00644
665,425	0,00644
665,615	0,00636
665,805	0,00629
665,994	0,00643
666,184	0,00643
666,373	0,00637
666,563	0,00628
666,753	0,00621
666,942	0,00605
667,132	0,00592
667,321	0,00575
667,511	0,00559
667,7	0,0054
667,889	0,00522
668,079	0,00513
668,268	0,00512
668,458	0,005
668,647	0,00497
668,836	0,00489
669,026	0,00487
669,215	0,00486
669,404	0,00489
669,594	0,00483
669,783	0,00485
669,972	0,00487
670,162	0,00475
670,351	0,00458
670,54	0,0045
670,729	0,00434
670,919	0,00426
671,108	0,00423
671,297	0,00414
671,486	0,00403
671,675	0,00405
671,864	0,00402
672,053	0,00397
672,243	0,00388
672,432	0,00382
672,621	0,00382
672,81	0,00386
672,999	0,00376
673,188	0,00385
673,377	0,00381
673,566	0,0037
673,755	0,00361
673,944	0,00344
674,133	0,00332
674,322	0,00334
674,51	0,00334
674,699	0,00327
674,888	0,00313
675,077	0,00311
675,266	0,00291
675,455	0,00289
675,644	0,00288
675,832	0,00285
676,021	0,00289
676,21	0,00295
676,399	0,00278
676,587	0,00263
676,776	0,00249
676,965	0,00243
677,153	0,00251
677,342	0,00254
677,531	0,00248
677,719	0,00237
677,908	0,00232
678,097	0,0023
678,285	0,00229
678,474	0,00236
678,662	0,0025
678,851	0,00254
679,039	0,00255
679,228	0,00244
679,416	0,00247
679,605	0,00242
679,793	0,00249
679,982	0,00243
680,17	0,00239
680,359	0,00238
680,547	0,00243
680,736	0,00236
680,924	0,00237
681,112	0,00239
681,301	0,00246
681,489	0,00236
681,677	0,00241
681,866	0,00231
682,054	0,0023
682,242	0,00222
682,43	0,00221
682,619	0,00209
682,807	0,00202
682,995	0,00198
683,183	0,00185
683,371	0,00183
683,559	0,00181
683,748	0,00177
683,936	0,00183
684,124	0,00188
684,312	0,00187
684,5	0,00165
684,688	0,00167
684,876	0,00165
685,064	0,00158
685,252	0,00163
685,44	0,00155
685,628	0,0015
685,816	0,0015
686,004	0,00138
686,192	0,00124
686,38	0,00118
686,568	0,0013
686,756	0,00116
686,944	0,00112
687,131	0,00111
687,319	0,00109
687,507	0,00108
687,695	0,00096
687,883	0,0009
688,07	0,00099
688,258	0,00108
688,446	0,00109
688,634	0,00118
688,821	0,00119
689,009	0,00116
689,197	0,00127
689,384	0,00131
689,572	0,00122
689,76	0,00132
689,947	0,00132
690,135	0,00126
690,323	0,00128
690,51	0,0013
690,698	0,00117
690,885	0,00127
691,073	0,00132
691,26	0,00118
691,448	0,00117
691,635	0,00123
691,823	0,00124
692,01	0,00119
692,197	0,00112
692,385	0,0011
692,572	0,0011
692,76	0,00108
692,947	0,001
693,134	0,00108
693,322	0,00103
693,509	0,00098
693,696	0,00084
693,884	0,00075
694,071	0,00076
694,258	0,00083
694,445	0,00075
694,633	0,00072
694,82	0,00064
695,007	0,00063
695,194	0,00049
695,381	0,00049
695,568	0,00041
695,756	0,00047
695,943	0,00039
696,13	0,00035
696,317	0,00033
696,504	0,00039
696,691	0,00036
696,878	0,00039
697,065	0,0003
697,252	0,00039
697,439	0,00039
697,626	0,00031
697,813	0,00035
698	0,00037
698,187	0,00041
698,374	0,0004
698,561	0,00036
698,747	0,00035
698,934	0,00038
699,121	0,00053
699,308	0,0004
699,495	0,00037
699,682	0,00049
699,868	0,00033
700,055	0,0003
700,242	0,00018
700,429	0,0001
700,615	0,00004
700,802	0,00003
700,989	-0,00004
701,175	-0,00024
701,362	-0,00022
701,549	-0,00024
701,735	-0,00028
701,922	-0,00019
702,108	-0,00015
702,295	-0,00015
702,482	-0,00023
702,668	-0,00027
702,855	-0,00029
703,041	-0,00024
703,228	-0,00015
703,414	-0,0002
703,601	-0,00017
703,787	-0,00022
703,973	-0,00029
704,16	-0,00035
704,346	-0,00024
704,533	-0,00025
704,719	-0,0003
704,905	-0,00032
705,092	-0,00037
705,278	-0,00042
705,464	-0,00039
705,65	-0,00034
705,837	-0,00034
706,023	-0,00032
706,209	-0,0002
706,395	-0,00031
706,582	-0,00028
706,768	-0,00026
706,954	-0,00021
707,14	-0,00022
707,326	-0,00025
707,512	-0,00033
707,698	-0,00038
707,885	-0,00036
708,071	-0,00035
708,257	-0,00046
708,443	-0,00037
708,629	-0,00033
708,815	-0,0003
709,001	-0,00033
709,187	-0,00036
709,373	-0,0003
709,559	-0,00028
709,745	-0,0003
709,93	-0,00035
710,116	-0,0004
710,302	-0,00033
710,488	-0,00027
710,674	-0,00028
710,86	-0,00029
711,046	-0,00019
711,231	-0,00015
711,417	-0,00021
711,603	-0,00018
711,789	-0,00017
711,974	-0,00008
712,16	-0,00008
712,346	-0,00022
712,532	-0,00032
712,717	-0,00032
712,903	-0,00044
713,089	-0,00057
713,274	-0,00057
713,46	-0,00062
713,645	-0,00061
713,831	-0,00063
714,016	-0,00072
714,202	-0,00055
714,388	-0,00037
714,573	-0,00048
714,759	-0,00049
714,944	-0,00038
715,129	-0,00046
715,315	-0,00047
715,5	-0,00052
715,686	-0,00059
715,871	-0,00062
716,057	-0,00062
716,242	-0,00068
716,427	-0,00078
716,613	-0,00073
716,798	-0,0007
716,983	-0,00076
717,168	-0,00063
717,354	-0,0006
717,539	-0,00047
717,724	-0,00039
717,909	-0,00033
718,095	-0,00031
718,28	-0,00043
718,465	-0,00046
718,65	-0,00049
718,835	-0,00059
719,02	-0,0005
719,206	-0,00055
719,391	-0,00057
719,576	-0,00069
719,761	-0,00071
719,946	-0,00078
720,131	-0,00083
720,316	-0,00079
720,501	-0,00076
720,686	-0,00063
720,871	-0,00051
721,056	-0,00059
721,241	-0,00059
721,426	-0,00062
721,61	-0,00058
721,795	-0,0006
721,98	-0,00066
722,165	-0,00062
722,35	-0,00059
722,535	-0,00065
722,719	-0,00076
722,904	-0,00081
723,089	-0,00082
723,274	-0,00083
723,458	-0,00087
723,643	-0,00081
723,828	-0,00085
724,013	-0,00081
724,197	-0,0009
724,382	-0,00096
724,567	-0,00098
724,751	-0,00092
724,936	-0,00094
725,12	-0,00102
725,305	-0,00098
725,489	-0,00096
725,674	-0,00098
725,859	-0,00096
726,043	-0,00094
726,228	-0,00083
726,412	-0,00083
726,596	-0,00079
726,781	-0,00078
726,965	-0,00074
727,15	-0,00059
727,334	-0,00065
727,518	-0,00072
727,703	-0,00067
727,887	-0,00069
728,072	-0,00062
728,256	-0,00069
728,44	-0,00073
728,624	-0,00071
728,809	-0,00082
728,993	-0,00084
729,177	-0,00083
729,361	-0,00079
729,546	-0,00078
729,73	-0,00083
729,914	-0,0009
730,098	-0,00101
730,282	-0,00101
730,466	-0,00096
730,65	-0,00086
730,834	-0,00079
731,019	-0,00086
731,203	-0,00096
731,387	-0,00102
731,571	-0,00104
731,755	-0,00107
731,939	-0,00102
732,123	-0,00101
732,306	-0,00092
732,49	-0,00095
732,674	-0,00108
732,858	-0,00111
733,042	-0,00116
733,226	-0,00106
733,41	-0,00098
733,594	-0,00089
733,778	-0,00092
733,961	-0,00087
734,145	-0,00087
734,329	-0,00083
734,513	-0,00077
734,696	-0,00066
734,88	-0,00064
735,064	-0,00067
735,247	-0,0008
735,431	-0,00092
735,615	-0,00097
735,798	-0,00089
735,982	-0,00081
736,166	-0,00075
736,349	-0,00085
736,533	-0,00082
736,716	-0,00084
736,9	-0,0009
737,083	-0,00086
737,267	-0,0008
737,45	-0,00081
737,634	-0,00077
737,817	-0,00084
738,001	-0,00094
738,184	-0,00104
738,368	-0,00099
738,551	-0,00109
738,734	-0,00114
738,918	-0,00107
739,101	-0,00093
739,284	-0,00099
739,468	-0,00104
739,651	-0,00107
739,834	-0,00109
740,018	-0,0012
740,201	-0,00115
740,384	-0,00123
740,567	-0,00124
740,75	-0,00127
740,934	-0,00138
741,117	-0,00149
741,3	-0,00135
741,483	-0,00123
741,666	-0,00133
741,849	-0,00133
742,032	-0,00128
742,215	-0,00132
742,399	-0,00131
742,582	-0,00128
742,765	-0,00123
742,948	-0,00112
743,131	-0,0011
743,314	-0,00123
743,496	-0,00132
743,679	-0,00123
743,862	-0,00114
744,045	-0,00108
744,228	-0,00112
744,411	-0,00111
744,594	-0,00107
744,777	-0,00116
744,959	-0,00125
745,142	-0,00116
745,325	-0,00104
745,508	-0,00106
745,691	-0,00098
745,873	-0,00111
746,056	-0,00116
746,239	-0,00116
746,421	-0,00106
746,604	-0,00116
746,787	-0,00114
746,969	-0,00111
747,152	-0,00126
747,335	-0,00144
747,517	-0,00135
747,7	-0,00132
747,882	-0,00124
748,065	-0,00123
748,247	-0,00114
748,43	-0,00128
748,612	-0,00128
748,795	-0,00127
748,977	-0,00127
749,16	-0,00138
749,342	-0,00122
749,524	-0,00125
749,707	-0,00135
749,889	-0,0014
750,072	-0,00147
750,254	-0,00151
750,436	-0,00154
750,619	-0,00156
750,801	-0,00162
750,983	-0,00167
751,165	-0,00155
751,348	-0,00168
751,53	-0,00173
751,712	-0,00178
751,894	-0,00177
752,076	-0,00166
752,259	-0,00173
752,441	-0,00173
752,623	-0,00168
752,805	-0,00167
752,987	-0,00169
753,169	-0,00175
753,351	-0,00173
753,533	-0,00169
753,715	-0,00167
753,897	-0,00165
754,079	-0,00166
754,261	-0,00158
754,443	-0,00156
754,625	-0,00154
754,807	-0,00155
754,989	-0,0014
755,171	-0,00129
755,353	-0,00139
755,534	-0,00147
755,716	-0,0014
755,898	-0,00149
756,08	-0,0015
756,262	-0,00152
756,443	-0,00158
756,625	-0,00149
756,807	-0,00155
756,989	-0,00169
757,17	-0,00186
757,352	-0,00173
757,534	-0,0016
757,715	-0,00167
757,897	-0,00166
758,079	-0,00172
758,26	-0,00175
758,442	-0,00161
758,623	-0,00169
758,805	-0,00158
758,987	-0,00156
759,168	-0,00153
759,35	-0,00158
759,531	-0,00158
759,713	-0,00163
759,894	-0,0017
760,075	-0,00173
760,257	-0,00179
760,438	-0,00192
760,62	-0,00198
760,801	-0,00199
760,982	-0,00199
761,164	-0,00198
761,345	-0,00194
761,526	-0,00204
761,708	-0,00195
761,889	-0,00192
762,07	-0,00192
762,251	-0,00185
762,433	-0,00178
762,614	-0,00181
762,795	-0,00186
762,976	-0,00189
763,157	-0,00184
763,338	-0,00196
763,52	-0,00192
763,701	-0,00206
763,882	-0,00206
764,063	-0,00201
764,244	-0,00196
764,425	-0,00197
764,606	-0,0019
764,787	-0,00185
764,968	-0,00189
765,149	-0,00189
765,33	-0,0018
765,511	-0,00183
765,692	-0,00182
765,873	-0,00176
766,053	-0,00188
766,234	-0,00187
766,415	-0,00188
766,596	-0,00206
766,777	-0,00217
766,958	-0,00216
767,138	-0,0022
767,319	-0,00228
767,5	-0,00223
767,681	-0,00227
767,861	-0,00229
768,042	-0,00221
768,223	-0,00226
768,403	-0,00235
768,584	-0,00219
768,765	-0,00216
768,945	-0,00223
769,126	-0,00222
769,307	-0,00218
769,487	-0,00224
769,668	-0,00207
769,848	-0,00207
770,029	-0,00205
770,209	-0,00213
770,39	-0,00213
770,57	-0,00219
770,751	-0,00217
770,931	-0,00213
771,111	-0,00217
771,292	-0,00213
771,472	-0,0021
771,653	-0,00219
771,833	-0,00228
772,013	-0,00228
772,194	-0,00216
772,374	-0,00221
772,554	-0,00219
772,734	-0,00217
772,915	-0,00202
773,095	-0,00197
773,275	-0,00196
773,455	-0,00202
773,635	-0,00208
773,816	-0,00186
773,996	-0,00179
774,176	-0,00182
774,356	-0,00176
774,536	-0,00176
774,716	-0,00182
774,896	-0,00193
775,076	-0,00193
775,256	-0,00195
775,436	-0,00184
775,616	-0,0018
775,796	-0,00185
775,976	-0,00191
776,156	-0,00183
776,336	-0,00184
776,516	-0,00198
776,696	-0,00194
776,876	-0,00191
777,056	-0,00198
777,235	-0,00203
777,415	-0,00213
777,595	-0,00217
777,775	-0,00228
777,955	-0,00231
778,134	-0,00242
778,314	-0,00246
778,494	-0,00232
778,674	-0,00226
778,853	-0,00229
779,033	-0,00221
779,213	-0,00221
779,392	-0,00214
779,572	-0,00206
779,751	-0,00207
779,931	-0,0021
780,111	-0,0021
780,29	-0,002
780,47	-0,00198
780,649	-0,0021
780,829	-0,00213
781,008	-0,00206
781,188	-0,00194
781,367	-0,00193
781,546	-0,00194
781,726	-0,00196
781,905	-0,00197
782,085	-0,00198
782,264	-0,00206
782,443	-0,00211
782,623	-0,00213
782,802	-0,00211
782,981	-0,00228
783,161	-0,00234
783,34	-0,00242
783,519	-0,00242
783,698	-0,00242
783,878	-0,0023
784,057	-0,00234
784,236	-0,00221
784,415	-0,00222
784,594	-0,00207
784,773	-0,00209
784,952	-0,00203
785,132	-0,00216
785,311	-0,00204
785,49	-0,00217
785,669	-0,00219
785,848	-0,00221
786,027	-0,00219
786,206	-0,00217
786,385	-0,00216
786,564	-0,00227
786,743	-0,00215
786,922	-0,00213
787,1	-0,00206
787,279	-0,00228
787,458	-0,00217
787,637	-0,00213
787,816	-0,00214
787,995	-0,00223
788,174	-0,00227
788,352	-0,00222
788,531	-0,00219
788,71	-0,00228
788,889	-0,0024
789,067	-0,00248
789,246	-0,00248
789,425	-0,00244
789,603	-0,00238
789,782	-0,00244
789,961	-0,00232
790,139	-0,00222
790,318	-0,00221
790,496	-0,00222
790,675	-0,0021
790,853	-0,00189
791,032	-0,00187
791,211	-0,00179
791,389	-0,00185
791,568	-0,00184
791,746	-0,00186
791,924	-0,00188
792,103	-0,00201
792,281	-0,00213
792,46	-0,00209
792,638	-0,00216
792,816	-0,00221
792,995	-0,00203
793,173	-0,00198
793,351	-0,00194
793,53	-0,0019
793,708	-0,00182
793,886	-0,00188
794,064	-0,00182
794,243	-0,00166
794,421	-0,00166
794,599	-0,0017
794,777	-0,00181
794,955	-0,00189
795,133	-0,00189
795,312	-0,00198
795,49	-0,00203
795,668	-0,00203
795,846	-0,00203
796,024	-0,00208
796,202	-0,00212
796,38	-0,00223
796,558	-0,00217
796,736	-0,00217
796,914	-0,00228
797,092	-0,0024
797,27	-0,00235
797,448	-0,00243
797,626	-0,00257
797,803	-0,00266
797,981	-0,00278
798,159	-0,00283
798,337	-0,00279
798,515	-0,00286
798,693	-0,00285
798,87	-0,00291
799,048	-0,00283
799,226	-0,00289
799,404	-0,00294
799,581	-0,00292
799,759	-0,00295
799,937	-0,00307
800,114	-0,00321
800,292	-0,00324
800,469	-0,0031
800,647	-0,00313
800,825	-0,00308
801,002	-0,00319
801,18	-0,00324
801,357	-0,00323
801,535	-0,00317
801,712	-0,00309
801,89	-0,00297
802,067	-0,00299
802,245	-0,00296
802,422	-0,00313
802,6	-0,0031
802,777	-0,00305
802,954	-0,00304
803,132	-0,00288
803,309	-0,00278
803,486	-0,00279
803,664	-0,00278
803,841	-0,00259
804,018	-0,00257
804,195	-0,00259
804,373	-0,0026
804,55	-0,00263
804,727	-0,00268
804,904	-0,00262
805,081	-0,00266
805,259	-0,0028
805,436	-0,00289
805,613	-0,00289
805,79	-0,00304
805,967	-0,00295
806,144	-0,00296
806,321	-0,00296
806,498	-0,00285
806,675	-0,00276
806,852	-0,00287
807,029	-0,00299
807,206	-0,003
807,383	-0,00296
807,56	-0,00284
807,737	-0,00284
807,914	-0,00288
808,091	-0,00289
808,268	-0,00276
808,444	-0,00281
808,621	-0,00285
808,798	-0,00291
808,975	-0,00278
809,152	-0,00285
809,328	-0,00281
809,505	-0,0027
809,682	-0,0027
809,858	-0,00267
810,035	-0,00255
810,212	-0,00267
810,388	-0,00269
810,565	-0,00246
810,742	-0,00235
810,918	-0,00242
811,095	-0,00238
811,271	-0,00242
811,448	-0,00258
811,625	-0,00252
811,801	-0,00255
811,978	-0,00258
812,154	-0,00269
812,33	-0,00259
812,507	-0,00271
812,683	-0,00271
812,86	-0,00268
813,036	-0,00245
813,212	-0,00247
813,389	-0,0026
813,565	-0,0027
813,741	-0,00263
813,918	-0,00251
814,094	-0,00229
814,27	-0,00246
814,447	-0,00256
814,623	-0,00248
814,799	-0,00253
814,975	-0,0027
815,151	-0,0027
815,328	-0,00255
815,504	-0,00244
815,68	-0,00255
815,856	-0,00272
816,032	-0,00272
816,208	-0,00268
816,384	-0,00263
816,56	-0,00268
816,736	-0,00276
816,912	-0,00268
817,088	-0,0026
817,264	-0,00263
817,44	-0,00273
817,616	-0,0027
817,792	-0,00271
817,968	-0,00265
818,144	-0,0026
818,32	-0,00265
818,495	-0,00261
818,671	-0,00253
818,847	-0,00265
819,023	-0,00267
819,199	-0,00263
819,374	-0,00257
819,55	-0,00259
819,726	-0,00254
819,902	-0,00258
820,077	-0,00259
820,253	-0,00258
820,429	-0,00256
820,604	-0,00239
820,78	-0,00249
820,956	-0,00253
821,131	-0,00278
821,307	-0,00276
821,482	-0,00263
821,658	-0,00269
821,833	-0,00305
822,009	-0,00323
822,184	-0,00335
822,36	-0,00332
822,535	-0,00342
822,711	-0,00331
822,886	-0,00332
823,061	-0,00316
823,237	-0,00312
823,412	-0,0031
823,587	-0,00312
823,763	-0,00283
823,938	-0,00277
824,113	-0,00277
824,289	-0,00298
824,464	-0,00289
824,639	-0,00279
824,814	-0,00291
824,99	-0,00291
825,165	-0,00289
825,34	-0,00287
825,515	-0,00279
825,69	-0,0029
825,865	-0,00279
826,04	-0,00268
826,215	-0,00246
826,39	-0,00242
826,566	-0,00235
826,741	-0,00216
826,916	-0,0021
827,091	-0,00219
827,265	-0,00228
827,44	-0,00235
827,615	-0,00219
827,79	-0,00221
827,965	-0,00224
828,14	-0,00231
828,315	-0,00232
828,49	-0,00235
828,665	-0,00236
828,839	-0,0025
829,014	-0,00252
829,189	-0,00261
829,364	-0,00254
829,538	-0,00243
829,713	-0,0024
829,888	-0,00226
830,063	-0,00221
830,237	-0,00244
830,412	-0,00234
830,587	-0,0024
830,761	-0,00213
830,936	-0,00203
831,11	-0,00186
831,285	-0,00205
831,459	-0,00204
831,634	-0,00216
831,809	-0,00222
831,983	-0,0023
832,157	-0,00238
832,332	-0,00267
832,506	-0,00249
832,681	-0,00268
832,855	-0,00286
833,03	-0,00307
833,204	-0,00294
833,378	-0,00294
833,553	-0,00297
833,727	-0,00285
833,901	-0,00283
834,076	-0,00237
834,25	-0,00238
834,424	-0,00241
834,598	-0,00232
834,773	-0,0022
834,947	-0,00194
835,121	-0,00197
835,295	-0,00221
835,469	-0,00203
835,643	-0,0023
835,817	-0,0024
835,991	-0,00293
836,166	-0,00277
836,34	-0,00277
836,514	-0,00276
836,688	-0,00277
836,862	-0,00291
837,036	-0,00286
837,21	-0,00283
837,384	-0,00296
837,557	-0,00273
837,731	-0,00262
837,905	-0,00227
838,079	-0,00243
838,253	-0,00252
838,427	-0,00266
838,601	-0,0029
838,774	-0,00296
838,948	-0,00291
839,122	-0,00281
839,296	-0,00264
839,469	-0,00264
839,643	-0,00279
839,817	-0,0032
839,991	-0,00313
840,164	-0,00308
840,338	-0,00312
840,512	-0,00287
840,685	-0,00263
840,859	-0,00278
841,032	-0,00289
841,206	-0,00297
841,379	-0,00302
841,553	-0,00288
841,726	-0,00247
841,9	-0,00235
842,073	-0,0022
842,247	-0,00216
842,42	-0,00222
842,594	-0,00225
842,767	-0,00229
842,94	-0,00242
843,114	-0,00225
843,287	-0,00214
843,46	-0,0022
843,634	-0,00224
843,807	-0,00235
843,98	-0,00257
844,154	-0,00248
844,327	-0,00249
844,5	-0,00246
844,673	-0,00235
844,846	-0,00227
845,02	-0,00253
845,193	-0,00296
845,366	-0,00297
845,539	-0,00318
845,712	-0,00322
845,885	-0,00336
846,058	-0,00338
846,231	-0,00346
846,404	-0,00361
846,577	-0,00357
846,75	-0,00346
846,923	-0,00327
847,096	-0,00299
847,269	-0,00269
847,442	-0,0024
847,615	-0,00217
847,788	-0,00214
847,961	-0,00204
848,133	-0,00177
848,306	-0,00157
848,479	-0,00158
848,652	-0,0016
848,825	-0,00165
848,997	-0,00162
849,17	-0,00198
849,343	-0,00216
849,515	-0,00233
849,688	-0,00223
849,861	-0,00228
850,033	-0,00232
850,206	-0,00256
850,379	-0,00279
850,551	-0,00267
850,724	-0,00269
850,896	-0,00304
851,069	-0,00278
851,241	-0,00275
851,414	-0,00276
851,586	-0,00282
851,759	-0,00294
851,931	-0,00295
852,104	-0,00286
852,276	-0,00266
852,449	-0,00278
852,621	-0,00298
852,793	-0,00274
852,966	-0,00276
853,138	-0,00277
853,31	-0,00271
853,483	-0,00274
853,655	-0,00262
853,827	-0,0029
853,999	-0,00292
854,172	-0,00304
854,344	-0,00309
854,516	-0,00286
854,688	-0,00274
854,86	-0,00292
855,032	-0,00291
855,204	-0,0029
855,377	-0,00287
855,549	-0,003
855,721	-0,00281
855,893	-0,0028
856,065	-0,00267
856,237	-0,00276
856,409	-0,00289
856,581	-0,00303
856,753	-0,00285
856,924	-0,00285
857,096	-0,00272
857,268	-0,0026
857,44	-0,00258
857,612	-0,00249
857,784	-0,00274
857,956	-0,00269
858,127	-0,00247
858,299	-0,00233
858,471	-0,00231
858,643	-0,00262
858,814	-0,00272
858,986	-0,00305
859,158	-0,00306
859,33	-0,0029
859,501	-0,00311
859,673	-0,00288
859,844	-0,00292
860,016	-0,00302
860,188	-0,00319
860,359	-0,00297
860,531	-0,00268
860,702	-0,00253
860,874	-0,00242
861,045	-0,00265
861,217	-0,00286
861,388	-0,00282
861,56	-0,00289
861,731	-0,00304
861,902	-0,00298
862,074	-0,00296
862,245	-0,00303
862,417	-0,00311
862,588	-0,00324
862,759	-0,0033
862,931	-0,0032
863,102	-0,00305
863,273	-0,00315
863,444	-0,00324
863,616	-0,00302
863,787	-0,00306
863,958	-0,00313
864,129	-0,00336
864,3	-0,0035
864,471	-0,00361
864,642	-0,00328
864,814	-0,00333
864,985	-0,00344
865,156	-0,00347
865,327	-0,00346
865,498	-0,00339
865,669	-0,0036
865,84	-0,00356
866,011	-0,00345
866,182	-0,00347
866,353	-0,00339
866,523	-0,00374
866,694	-0,00349
866,865	-0,00333
867,036	-0,00321
867,207	-0,00321
867,378	-0,00372
867,549	-0,00357
867,719	-0,00349
867,89	-0,00357
868,061	-0,00325
868,232	-0,00315
868,402	-0,00313
868,573	-0,00343
868,744	-0,00344
868,914	-0,00351
869,085	-0,00344
869,256	-0,00305
869,426	-0,00328
869,597	-0,00325
869,767	-0,00304
869,938	-0,00313
870,108	-0,00325
870,279	-0,00307
870,449	-0,00304
870,62	-0,00327
870,79	-0,00316
870,961	-0,00312
871,131	-0,00321
871,302	-0,00284
871,472	-0,00307
871,642	-0,0032
871,813	-0,0034
871,983	-0,00332
872,153	-0,00337
872,324	-0,00325
872,494	-0,00318
872,664	-0,00319
872,835	-0,00299
873,005	-0,00263
873,175	-0,00267
873,345	-0,00251
873,515	-0,00274
873,685	-0,00275
873,856	-0,00254
874,026	-0,00268
874,196	-0,00272
874,366	-0,00288
874,536	-0,00269
874,706	-0,00278
874,876	-0,00336
875,046	-0,00364
875,216	-0,0036
875,386	-0,0033
875,556	-0,00295
875,726	-0,00316
875,896	-0,00304
876,066	-0,00303
876,236	-0,00293
876,405	-0,003
876,575	-0,00321
876,745	-0,00317
876,915	-0,00271
877,085	-0,00271
877,254	-0,00266
877,424	-0,00278
877,594	-0,00282
877,764	-0,00255
877,933	-0,00261
878,103	-0,00263
878,273	-0,00262
878,442	-0,00264
878,612	-0,00258
878,781	-0,00283
878,951	-0,00272
879,121	-0,0031
879,29	-0,00315
879,46	-0,00293
879,629	-0,00304
879,799	-0,00285
879,968	-0,00276
880,138	-0,00265
880,307	-0,00254
880,476	-0,00222
880,646	-0,00234
880,815	-0,00275
880,985	-0,00284
881,154	-0,00297
881,323	-0,00309
881,493	-0,00318
881,662	-0,00348
881,831	-0,00357
882	-0,0039
882,17	-0,0039
882,339	-0,00421
882,508	-0,0041
882,677	-0,00373
882,846	-0,00329
883,016	-0,00323
883,185	-0,0032
883,354	-0,00311
883,523	-0,00307
883,692	-0,00284
883,861	-0,00258
884,03	-0,00291
884,199	-0,00285
884,368	-0,00258
884,537	-0,00308
884,706	-0,00323
884,875	-0,00344
885,044	-0,00343
885,213	-0,00338
885,382	-0,00345
885,55	-0,00384
885,719	-0,00415
885,888	-0,0038
886,057	-0,00384
886,226	-0,00429
886,395	-0,00407
886,563	-0,00406
886,732	-0,00388
886,901	-0,0039
887,069	-0,00419
887,238	-0,00405
887,407	-0,00384
887,575	-0,00352
887,744	-0,00333
887,913	-0,00345
888,081	-0,00318
888,25	-0,00282
888,418	-0,00319
888,587	-0,00335
888,755	-0,00355
888,924	-0,00341
889,092	-0,0031
889,261	-0,00318
889,429	-0,0033
889,598	-0,00354
889,766	-0,00335
889,935	-0,00363
890,103	-0,00397
890,271	-0,0038
890,44	-0,00399
890,608	-0,00385
890,776	-0,00403
890,944	-0,00411
891,113	-0,00413
891,281	-0,00439
891,449	-0,00463
891,617	-0,00487
891,786	-0,0047
891,954	-0,00448
892,122	-0,00385
892,29	-0,00357
892,458	-0,00383
892,626	-0,00361
892,794	-0,00379
892,962	-0,00363
893,13	-0,00335
893,298	-0,00298
893,466	-0,00251
