Data from Chemiepractica_Absorbance__21__11-42-13-102.txt Node

Date: Mon Dec 09 11:42:13 CET 2024
User: r0948668
Spectrometer: USB4F07138
Trigger mode: 4
Integration Time (sec): 6,000000E-3
Scans to average: 20
Electric dark correction enabled: true
Nonlinearity correction enabled: false
Boxcar width: 5
XAxis mode: Wavelengths
Number of Pixels in Spectrum: 3648
>>>>>Begin Spectral Data<<<<<
176,779	-0
176,999	-0
177,218	-0
177,438	-1,53927
177,658	-0,67036
177,878	-0,47281
178,097	-0,14832
178,317	-0,38784
178,537	-0,23808
178,757	-0,20532
178,976	0,05517
179,196	-0,0103
179,416	-0
179,635	-0,25682
179,855	0,01543
180,075	-0,03302
180,294	-0,05649
180,514	-0,07584
180,734	-0,00837
180,953	-0,02692
181,173	-0,0144
181,392	-0,0323
181,612	-0,03246
181,832	-0,01229
182,051	-0,004
182,271	-0,01014
182,49	-0,01739
182,71	-0,00479
182,929	0,01074
183,149	0,00833
183,368	0,03881
183,588	0,03601
183,807	0,05061
184,027	0,06242
184,246	0,0587
184,466	0,06104
184,685	0,0622
184,905	0,06786
185,124	0,08324
185,344	0,08084
185,563	0,08287
185,782	0,0808
186,002	0,08398
186,221	0,07391
186,44	0,07504
186,66	0,06284
186,879	0,07759
187,099	0,07111
187,318	0,07128
187,537	0,04782
187,756	0,04791
187,976	0,03418
188,195	0,02877
188,414	0,03847
188,634	0,05136
188,853	0,04814
189,072	0,06728
189,291	0,03704
189,511	0,05679
189,73	0,05571
189,949	0,06683
190,168	0,06139
190,387	0,07956
190,607	0,072
190,826	0,06392
191,045	0,0533
191,264	0,04961
191,483	0,0345
191,702	0,04361
191,921	0,03255
192,141	0,03306
192,36	0,02624
192,579	0,03959
192,798	0,03181
193,017	0,02751
193,236	0,03944
193,455	0,0486
193,674	0,06118
193,893	0,0688
194,112	0,07705
194,331	0,07675
194,55	0,08244
194,769	0,08505
194,988	0,07277
195,207	0,07557
195,426	0,07937
195,645	0,07159
195,864	0,06728
196,083	0,05657
196,302	0,05252
196,521	0,04305
196,739	0,04469
196,958	0,04557
197,177	0,04794
197,396	0,06518
197,615	0,05705
197,834	0,04673
198,053	0,0498
198,271	0,04898
198,49	0,06378
198,709	0,06194
198,928	0,07517
199,147	0,07022
199,365	0,08533
199,584	0,07536
199,803	0,04184
200,022	0,05569
200,24	0,06024
200,459	0,04484
200,678	0,05261
200,897	0,03957
201,115	0,03816
201,334	0,04034
201,553	0,04672
201,771	0,03049
201,99	0,03601
202,209	0,06047
202,427	0,04806
202,646	0,05587
202,864	0,05627
203,083	0,03722
203,302	0,04377
203,52	0,05954
203,739	0,06222
203,957	0,05537
204,176	0,06999
204,394	0,07245
204,613	0,07162
204,831	0,07728
205,05	0,08593
205,268	0,09352
205,487	0,10032
205,705	0,10013
205,924	0,10049
206,142	0,09712
206,361	0,10409
206,579	0,08833
206,798	0,0786
207,016	0,07425
207,234	0,07472
207,453	0,06556
207,671	0,07479
207,89	0,07879
208,108	0,07764
208,326	0,06107
208,545	0,04946
208,763	0,05713
208,981	0,05298
209,2	0,04516
209,418	0,05566
209,636	0,04914
209,855	0,05017
210,073	0,03098
210,291	0,02474
210,509	0,02642
210,728	0,02578
210,946	0,03638
211,164	0,03186
211,382	0,04103
211,6	0,06771
211,819	0,06011
212,037	0,05871
212,255	0,05909
212,473	0,0743
212,691	0,07803
212,909	0,08645
213,128	0,084
213,346	0,07479
213,564	0,07885
213,782	0,07108
214	0,06049
214,218	0,05517
214,436	0,06921
214,654	0,05863
214,872	0,05561
215,09	0,04734
215,308	0,04019
215,526	0,05876
215,744	0,06564
215,962	0,05431
216,18	0,05136
216,398	0,04911
216,616	0,04219
216,834	0,02465
217,052	0,0359
217,27	0,03355
217,488	0,0341
217,706	0,03004
217,924	0,02706
218,142	0,02609
218,36	0,03749
218,578	0,05275
218,795	0,04817
219,013	0,04898
219,231	0,05615
219,449	0,04822
219,667	0,03893
219,885	0,04509
220,102	0,0507
220,32	0,04364
220,538	0,04685
220,756	0,03845
220,973	0,04237
221,191	0,0502
221,409	0,06407
221,627	0,06332
221,844	0,06852
222,062	0,0762
222,28	0,07696
222,497	0,06877
222,715	0,07817
222,933	0,07055
223,15	0,07359
223,368	0,05644
223,586	0,06068
223,803	0,0617
224,021	0,05591
224,239	0,0574
224,456	0,0545
224,674	0,05897
224,891	0,06174
225,109	0,05896
225,326	0,05439
225,544	0,05688
225,762	0,05916
225,979	0,04492
226,197	0,04278
226,414	0,04877
226,632	0,04308
226,849	0,0399
227,066	0,04593
227,284	0,04457
227,501	0,04686
227,719	0,05428
227,936	0,05211
228,154	0,05872
228,371	0,07084
228,588	0,06783
228,806	0,07422
229,023	0,08629
229,241	0,09775
229,458	0,09468
229,675	0,09903
229,893	0,08555
230,11	0,10272
230,327	0,10465
230,545	0,10686
230,762	0,1025
230,979	0,11203
231,196	0,10701
231,414	0,09412
231,631	0,07872
231,848	0,06635
232,065	0,06432
232,283	0,07362
232,5	0,04919
232,717	0,043
232,934	0,03598
233,151	0,03409
233,368	0,0255
233,586	0,02018
233,803	0,02653
234,02	0,04538
234,237	0,05012
234,454	0,05327
234,671	0,05957
234,888	0,07277
235,105	0,07434
235,322	0,07699
235,54	0,08725
235,757	0,09562
235,974	0,09659
236,191	0,09817
236,408	0,09334
236,625	0,09702
236,842	0,09716
237,059	0,09229
237,276	0,07843
237,493	0,07551
237,71	0,08177
237,926	0,07253
238,143	0,07011
238,36	0,07772
238,577	0,07084
238,794	0,06922
239,011	0,06857
239,228	0,07375
239,445	0,07683
239,662	0,0941
239,878	0,09707
240,095	0,09407
240,312	0,10396
240,529	0,10927
240,746	0,10531
240,963	0,10282
241,179	0,09908
241,396	0,10455
241,613	0,10056
241,83	0,10695
242,046	0,0934
242,263	0,09987
242,48	0,10392
242,697	0,09319
242,913	0,08775
243,13	0,08461
243,347	0,09318
243,563	0,09819
243,78	0,09586
243,997	0,08914
244,213	0,09054
244,43	0,10537
244,646	0,0984
244,863	0,09737
245,08	0,10622
245,296	0,09683
245,513	0,0951
245,729	0,09744
245,946	0,1
246,162	0,084
246,379	0,08935
246,595	0,07485
246,812	0,0653
247,028	0,06882
247,245	0,07049
247,461	0,05569
247,678	0,05815
247,894	0,07066
248,111	0,06758
248,327	0,06707
248,544	0,07843
248,76	0,08199
248,976	0,09721
249,193	0,09176
249,409	0,0872
249,626	0,07892
249,842	0,09058
250,058	0,09363
250,275	0,08228
250,491	0,06759
250,707	0,07148
250,924	0,08497
251,14	0,08612
251,356	0,0798
251,572	0,09611
251,789	0,10743
252,005	0,10807
252,221	0,12119
252,437	0,12346
252,654	0,12764
252,87	0,13418
253,086	0,13475
253,302	0,12596
253,518	0,11563
253,735	0,10318
253,951	0,09725
254,167	0,08254
254,383	0,07042
254,599	0,05016
254,815	0,05122
255,031	0,04603
255,247	0,03634
255,463	0,02059
255,68	0,02189
255,896	0,0293
256,112	0,03135
256,328	0,03498
256,544	0,04804
256,76	0,06639
256,976	0,07265
257,192	0,07605
257,408	0,07849
257,624	0,08451
257,84	0,09188
258,056	0,09288
258,272	0,08335
258,487	0,07237
258,703	0,06641
258,919	0,062
259,135	0,05353
259,351	0,05095
259,567	0,05066
259,783	0,04691
259,999	0,05108
260,215	0,05088
260,43	0,03686
260,646	0,0408
260,862	0,05453
261,078	0,05416
261,294	0,04672
261,509	0,05957
261,725	0,06575
261,941	0,05322
262,157	0,0583
262,372	0,06241
262,588	0,0513
262,804	0,06036
263,019	0,05728
263,235	0,05125
263,451	0,0517
263,667	0,05725
263,882	0,05667
264,098	0,05686
264,313	0,05901
264,529	0,04982
264,745	0,0501
264,96	0,05374
265,176	0,05346
265,391	0,05096
265,607	0,06351
265,823	0,06121
266,038	0,06121
266,254	0,05429
266,469	0,05953
266,685	0,06524
266,9	0,06172
267,116	0,06144
267,331	0,07349
267,547	0,07194
267,762	0,07177
267,978	0,06939
268,193	0,07849
268,408	0,08774
268,624	0,09912
268,839	0,09078
269,055	0,07899
269,27	0,07513
269,485	0,07473
269,701	0,07374
269,916	0,07924
270,132	0,09107
270,347	0,09825
270,562	0,08625
270,777	0,08191
270,993	0,08289
271,208	0,07737
271,423	0,09062
271,639	0,11003
271,854	0,10566
272,069	0,09901
272,284	0,08817
272,5	0,07147
272,715	0,06492
272,93	0,07571
273,145	0,06179
273,36	0,05099
273,576	0,05493
273,791	0,0472
274,006	0,03579
274,221	0,04555
274,436	0,05029
274,651	0,05886
274,866	0,069
275,081	0,07208
275,296	0,06562
275,512	0,0729
275,727	0,08391
275,942	0,08577
276,157	0,08924
276,372	0,09414
276,587	0,10517
276,802	0,11848
277,017	0,1147
277,232	0,11917
277,447	0,11686
277,662	0,11418
277,877	0,09629
278,092	0,08342
278,306	0,09393
278,521	0,09627
278,736	0,08746
278,951	0,07061
279,166	0,04649
279,381	0,04825
279,596	0,0496
279,811	0,05066
280,025	0,04883
280,24	0,06305
280,455	0,07196
280,67	0,06414
280,885	0,05974
281,099	0,06314
281,314	0,05994
281,529	0,05955
281,744	0,07338
281,959	0,06421
282,173	0,06858
282,388	0,07975
282,603	0,07971
282,817	0,07847
283,032	0,07994
283,247	0,08054
283,461	0,08038
283,676	0,07233
283,891	0,07802
284,105	0,06671
284,32	0,07647
284,535	0,06305
284,749	0,0615
284,964	0,07325
285,178	0,07168
285,393	0,07095
285,607	0,07144
285,822	0,09072
286,036	0,09293
286,251	0,0929
286,465	0,09748
286,68	0,08714
286,894	0,0881
287,109	0,08854
287,323	0,06522
287,538	0,05853
287,752	0,04502
287,967	0,0428
288,181	0,02916
288,396	0,03999
288,61	0,04819
288,824	0,04481
289,039	0,05418
289,253	0,05681
289,467	0,05071
289,682	0,06635
289,896	0,0753
290,11	0,08875
290,325	0,09925
290,539	0,0901
290,753	0,08417
290,968	0,07775
291,182	0,06955
291,396	0,06178
291,61	0,06602
291,825	0,07297
292,039	0,07349
292,253	0,07496
292,467	0,06815
292,681	0,05665
292,896	0,06109
293,11	0,05363
293,324	0,05348
293,538	0,05975
293,752	0,06065
293,966	0,05313
294,18	0,04389
294,394	0,03754
294,608	0,03277
294,823	0,03674
295,037	0,04288
295,251	0,04907
295,465	0,05896
295,679	0,05537
295,893	0,05532
296,107	0,05
296,321	0,05739
296,535	0,05629
296,749	0,05905
296,963	0,05007
297,177	0,04517
297,391	0,0493
297,604	0,03941
297,818	0,0396
298,032	0,03951
298,246	0,02869
298,46	0,0357
298,674	0,03475
298,888	0,03645
299,102	0,04168
299,315	0,04903
299,529	0,04977
299,743	0,04648
299,957	0,05701
300,171	0,05604
300,385	0,06069
300,598	0,06674
300,812	0,06396
301,026	0,06153
301,24	0,0685
301,453	0,05904
301,667	0,06156
301,881	0,0677
302,094	0,06434
302,308	0,05662
302,522	0,07057
302,735	0,07007
302,949	0,07375
303,163	0,07631
303,376	0,07976
303,59	0,08686
303,803	0,08562
304,017	0,08752
304,231	0,08374
304,444	0,08754
304,658	0,09369
304,871	0,08599
305,085	0,0897
305,298	0,0856
305,512	0,08919
305,725	0,08683
305,939	0,07718
306,152	0,08138
306,366	0,06516
306,579	0,07221
306,793	0,07478
307,006	0,07065
307,22	0,0731
307,433	0,06322
307,646	0,06224
307,86	0,05851
308,073	0,05655
308,286	0,04777
308,5	0,04032
308,713	0,04183
308,926	0,04807
309,14	0,04245
309,353	0,04116
309,566	0,03079
309,78	0,03626
309,993	0,03481
310,206	0,0325
310,419	0,03668
310,633	0,03815
310,846	0,06186
311,059	0,07254
311,272	0,05642
311,486	0,06224
311,699	0,05652
311,912	0,05931
312,125	0,06669
312,338	0,07117
312,551	0,0654
312,764	0,07195
312,978	0,08308
313,191	0,07478
313,404	0,06215
313,617	0,05982
313,83	0,05466
314,043	0,06802
314,256	0,07082
314,469	0,05887
314,682	0,05657
314,895	0,0581
315,108	0,05374
315,321	0,05379
315,534	0,05445
315,747	0,06988
315,96	0,07276
316,173	0,07818
316,386	0,07337
316,599	0,07208
316,812	0,08855
317,025	0,09114
317,237	0,09499
317,45	0,08947
317,663	0,0734
317,876	0,07911
318,089	0,08
318,302	0,07482
318,515	0,07278
318,727	0,06722
318,94	0,06103
319,153	0,04985
319,366	0,04397
319,578	0,04314
319,791	0,0544
320,004	0,06045
320,217	0,04052
320,429	0,03525
320,642	0,04919
320,855	0,04087
321,067	0,03907
321,28	0,04414
321,493	0,04769
321,705	0,04776
321,918	0,05299
322,131	0,0423
322,343	0,04486
322,556	0,05376
322,768	0,04836
322,981	0,03126
323,194	0,03585
323,406	0,03923
323,619	0,03514
323,831	0,03962
324,044	0,04963
324,256	0,04764
324,469	0,04032
324,681	0,04313
324,894	0,04178
325,106	0,04915
325,319	0,05272
325,531	0,05607
325,743	0,05825
325,956	0,0646
326,168	0,05857
326,381	0,04912
326,593	0,03728
326,805	0,04792
327,018	0,04954
327,23	0,04596
327,442	0,05024
327,655	0,04811
327,867	0,04602
328,079	0,04484
328,292	0,04766
328,504	0,05329
328,716	0,05793
328,928	0,07116
329,141	0,07207
329,353	0,06926
329,565	0,07363
329,777	0,05941
329,99	0,06526
330,202	0,07206
330,414	0,06794
330,626	0,06373
330,838	0,0621
331,05	0,06516
331,263	0,05609
331,475	0,05953
331,687	0,05725
331,899	0,0619
332,111	0,07242
332,323	0,06672
332,535	0,06291
332,747	0,07134
332,959	0,06715
333,171	0,06332
333,383	0,05959
333,595	0,06935
333,807	0,06869
334,019	0,06138
334,231	0,0601
334,443	0,05671
334,655	0,06604
334,867	0,06788
335,079	0,06286
335,291	0,05634
335,503	0,05982
335,714	0,05372
335,926	0,04836
336,138	0,04461
336,35	0,04829
336,562	0,04137
336,774	0,0421
336,986	0,03752
337,197	0,03547
337,409	0,03358
337,621	0,03852
337,833	0,03296
338,044	0,04004
338,256	0,04591
338,468	0,04486
338,68	0,04502
338,891	0,04735
339,103	0,04472
339,315	0,03762
339,526	0,03936
339,738	0,03399
339,95	0,03519
340,161	0,05035
340,373	0,04516
340,585	0,03876
340,796	0,03743
341,008	0,03429
341,219	0,04209
341,431	0,04307
341,642	0,05745
341,854	0,0568
342,065	0,07147
342,277	0,06853
342,489	0,06185
342,7	0,0689
342,912	0,06816
343,123	0,06728
343,334	0,07621
343,546	0,06339
343,757	0,0645
343,969	0,05055
344,18	0,04914
344,392	0,03592
344,603	0,04454
344,814	0,04042
345,026	0,03781
345,237	0,03945
345,448	0,04305
345,66	0,03991
345,871	0,05349
346,082	0,05956
346,294	0,0608
346,505	0,05607
346,716	0,06324
346,927	0,05944
347,139	0,05719
347,35	0,05749
347,561	0,05159
347,772	0,04598
347,984	0,05262
348,195	0,04551
348,406	0,03239
348,617	0,04495
348,828	0,05045
349,039	0,04535
349,251	0,04241
349,462	0,04657
349,673	0,04221
349,884	0,04562
350,095	0,0502
350,306	0,04177
350,517	0,04614
350,728	0,05165
350,939	0,04981
351,15	0,04393
351,361	0,04982
351,572	0,06208
351,783	0,0582
351,994	0,05924
352,205	0,05912
352,416	0,05648
352,627	0,06177
352,838	0,0558
353,049	0,06458
353,26	0,05989
353,471	0,06062
353,682	0,0599
353,893	0,05361
354,103	0,05089
354,314	0,05131
354,525	0,05266
354,736	0,04911
354,947	0,04894
355,157	0,04902
355,368	0,04306
355,579	0,04452
355,79	0,04481
356,001	0,04177
356,211	0,04704
356,422	0,04416
356,633	0,04629
356,843	0,04867
357,054	0,05444
357,265	0,0544
357,476	0,05787
357,686	0,05546
357,897	0,05646
358,107	0,05611
358,318	0,05943
358,529	0,05478
358,739	0,06713
358,95	0,06151
359,16	0,05933
359,371	0,05486
359,582	0,04874
359,792	0,04791
360,003	0,04662
360,213	0,04135
360,424	0,04329
360,634	0,04435
360,845	0,04347
361,055	0,0383
361,266	0,04076
361,476	0,05328
361,686	0,05429
361,897	0,0587
362,107	0,05402
362,318	0,0534
362,528	0,05586
362,738	0,04602
362,949	0,04254
363,159	0,03753
363,369	0,03767
363,58	0,03024
363,79	0,01583
364	0,016
364,211	0,01422
364,421	0,01445
364,631	0,02246
364,842	0,0189
365,052	0,02531
365,262	0,02216
365,472	0,02878
365,682	0,02851
365,893	0,03531
366,103	0,04447
366,313	0,04441
366,523	0,05013
366,733	0,04796
366,943	0,03839
367,154	0,04424
367,364	0,05223
367,574	0,05498
367,784	0,05068
367,994	0,05048
368,204	0,05247
368,414	0,05187
368,624	0,05053
368,834	0,04698
369,044	0,0516
369,254	0,05612
369,464	0,05627
369,674	0,05597
369,884	0,0496
370,094	0,05166
370,304	0,04871
370,514	0,04979
370,724	0,04585
370,934	0,04624
371,144	0,04321
371,353	0,04762
371,563	0,04639
371,773	0,04552
371,983	0,04299
372,193	0,04836
372,403	0,04863
372,612	0,04883
372,822	0,04611
373,032	0,04687
373,242	0,05119
373,452	0,05203
373,661	0,05278
373,871	0,05264
374,081	0,05364
374,29	0,05403
374,5	0,05909
374,71	0,05809
374,92	0,05807
375,129	0,06227
375,339	0,05749
375,549	0,0526
375,758	0,0531
375,968	0,0446
376,177	0,04417
376,387	0,03885
376,597	0,03914
376,806	0,03959
377,016	0,03599
377,225	0,03608
377,435	0,03017
377,644	0,03298
377,854	0,03488
378,063	0,03213
378,273	0,03496
378,482	0,03953
378,692	0,04352
378,901	0,04015
379,111	0,03834
379,32	0,0424
379,529	0,04579
379,739	0,04996
379,948	0,04916
380,158	0,05074
380,367	0,05249
380,576	0,05154
380,786	0,04433
380,995	0,04675
381,204	0,05149
381,414	0,04916
381,623	0,04791
381,832	0,04679
382,041	0,04368
382,251	0,0467
382,46	0,04356
382,669	0,04205
382,878	0,0432
383,088	0,0481
383,297	0,04714
383,506	0,04453
383,715	0,0427
383,924	0,03839
384,133	0,03717
384,342	0,04336
384,552	0,04343
384,761	0,0485
384,97	0,05006
385,179	0,05124
385,388	0,05058
385,597	0,04567
385,806	0,0463
386,015	0,04592
386,224	0,05129
386,433	0,05239
386,642	0,04215
386,851	0,04312
387,06	0,03998
387,269	0,03939
387,478	0,03707
387,687	0,03729
387,896	0,03857
388,105	0,03872
388,314	0,038
388,523	0,03561
388,731	0,03772
388,94	0,04046
389,149	0,03622
389,358	0,03377
389,567	0,03897
389,776	0,04101
389,984	0,04027
390,193	0,03934
390,402	0,03723
390,611	0,03748
390,819	0,03451
391,028	0,03112
391,237	0,03585
391,446	0,03693
391,654	0,03881
391,863	0,03628
392,072	0,03584
392,28	0,03512
392,489	0,03476
392,698	0,03151
392,906	0,03147
393,115	0,03518
393,324	0,03556
393,532	0,02978
393,741	0,02763
393,949	0,02545
394,158	0,02197
394,366	0,01989
394,575	0,01893
394,783	0,01934
394,992	0,02046
395,2	0,01887
395,409	0,01863
395,617	0,01539
395,826	0,01607
396,034	0,01608
396,243	0,01679
396,451	0,01778
396,66	0,0235
396,868	0,02195
397,076	0,01982
397,285	0,01866
397,493	0,01916
397,701	0,01808
397,91	0,01734
398,118	0,02074
398,326	0,02188
398,535	0,02085
398,743	0,02277
398,951	0,02001
399,159	0,02529
399,368	0,03138
399,576	0,03267
399,784	0,03407
399,992	0,03199
400,201	0,03306
400,409	0,02912
400,617	0,02959
400,825	0,03206
401,033	0,03031
401,241	0,03016
401,45	0,02946
401,658	0,0271
401,866	0,03105
402,074	0,03151
402,282	0,03341
402,49	0,03466
402,698	0,03933
402,906	0,03779
403,114	0,03476
403,322	0,03322
403,53	0,033
403,738	0,03068
403,946	0,02854
404,154	0,02218
404,362	0,02289
404,57	0,02127
404,778	0,02126
404,986	0,01884
405,194	0,0198
405,402	0,02139
405,609	0,02183
405,817	0,01905
406,025	0,02039
406,233	0,02173
406,441	0,0251
406,649	0,02308
406,856	0,02307
407,064	0,0222
407,272	0,02035
407,48	0,02118
407,687	0,02034
407,895	0,02096
408,103	0,02072
408,311	0,02102
408,518	0,01793
408,726	0,01852
408,934	0,01888
409,141	0,02082
409,349	0,01992
409,557	0,02138
409,764	0,02081
409,972	0,02255
410,18	0,02064
410,387	0,02245
410,595	0,02113
410,802	0,02102
411,01	0,0192
411,217	0,01997
411,425	0,01981
411,632	0,01983
411,84	0,01939
412,047	0,01794
412,255	0,0165
412,462	0,01955
412,67	0,0193
412,877	0,01974
413,085	0,02121
413,292	0,02428
413,499	0,02398
413,707	0,02354
413,914	0,02423
414,122	0,02428
414,329	0,02563
414,536	0,02595
414,744	0,02367
414,951	0,02287
415,158	0,02135
415,366	0,02089
415,573	0,01805
415,78	0,01661
415,987	0,01723
416,195	0,01945
416,402	0,0189
416,609	0,01991
416,816	0,01943
417,023	0,02035
417,231	0,02234
417,438	0,02302
417,645	0,02223
417,852	0,02127
418,059	0,02225
418,266	0,01975
418,473	0,01764
418,68	0,01828
418,888	0,01729
419,095	0,01773
419,302	0,01614
419,509	0,01435
419,716	0,01506
419,923	0,01713
420,13	0,01847
420,337	0,01911
420,544	0,02131
420,751	0,02219
420,958	0,02248
421,165	0,02343
421,371	0,02188
421,578	0,02284
421,785	0,02239
421,992	0,02212
422,199	0,02217
422,406	0,02364
422,613	0,02321
422,82	0,02342
423,026	0,02286
423,233	0,02325
423,44	0,02044
423,647	0,02239
423,854	0,02359
424,06	0,02331
424,267	0,02136
424,474	0,02054
424,681	0,01895
424,887	0,01896
425,094	0,01753
425,301	0,0182
425,507	0,01658
425,714	0,01694
425,921	0,01575
426,127	0,01437
426,334	0,01446
426,54	0,01513
426,747	0,01612
426,954	0,01615
427,16	0,01423
427,367	0,01401
427,573	0,01402
427,78	0,01435
427,986	0,01562
428,193	0,01643
428,399	0,01792
428,606	0,01815
428,812	0,01908
429,019	0,01809
429,225	0,01901
429,432	0,02143
429,638	0,02237
429,845	0,02095
430,051	0,02235
430,257	0,02092
430,464	0,02114
430,67	0,01997
430,876	0,01975
431,083	0,01961
431,289	0,0198
431,495	0,01957
431,702	0,01839
431,908	0,0169
432,114	0,01697
432,32	0,0161
432,527	0,01756
432,733	0,01715
432,939	0,01652
433,145	0,01706
433,351	0,01745
433,558	0,01895
433,764	0,0187
433,97	0,01851
434,176	0,01906
434,382	0,02039
434,588	0,02082
434,794	0,02026
435,001	0,02094
435,207	0,02219
435,413	0,02197
435,619	0,02204
435,825	0,02092
436,031	0,02133
436,237	0,02252
436,443	0,02387
436,649	0,02344
436,855	0,02403
437,061	0,02438
437,267	0,02506
437,473	0,02482
437,679	0,02546
437,884	0,02493
438,09	0,0246
438,296	0,0233
438,502	0,02309
438,708	0,02266
438,914	0,0226
439,12	0,02268
439,325	0,02278
439,531	0,02209
439,737	0,02181
439,943	0,02149
440,149	0,02157
440,354	0,02192
440,56	0,02285
440,766	0,02193
440,972	0,02265
441,177	0,02346
441,383	0,02313
441,589	0,02263
441,794	0,02237
442	0,02347
442,206	0,02407
442,411	0,02465
442,617	0,02384
442,822	0,02444
443,028	0,02463
443,234	0,02556
443,439	0,02468
443,645	0,02475
443,85	0,02532
444,056	0,0251
444,261	0,02498
444,467	0,02513
444,672	0,02544
444,878	0,02675
445,083	0,02613
445,289	0,0269
445,494	0,02579
445,699	0,02665
445,905	0,02636
446,11	0,02687
446,316	0,02746
446,521	0,0272
446,726	0,02739
446,932	0,0263
447,137	0,02653
447,342	0,02718
447,548	0,02698
447,753	0,0272
447,958	0,02687
448,164	0,02699
448,369	0,02606
448,574	0,02585
448,779	0,02606
448,984	0,02592
449,19	0,02683
449,395	0,02669
449,6	0,02671
449,805	0,02661
450,01	0,02679
450,215	0,02665
450,421	0,02733
450,626	0,02825
450,831	0,02806
451,036	0,02796
451,241	0,02868
451,446	0,02896
451,651	0,0298
451,856	0,02989
452,061	0,03115
452,266	0,03093
452,471	0,03189
452,676	0,03197
452,881	0,03187
453,086	0,03365
453,291	0,03455
453,496	0,03424
453,701	0,03474
453,906	0,03493
454,111	0,03488
454,316	0,03576
454,52	0,0362
454,725	0,03537
454,93	0,0352
455,135	0,03638
455,34	0,03526
455,545	0,03554
455,749	0,03596
455,954	0,0356
456,159	0,03454
456,364	0,03558
456,568	0,03498
456,773	0,03519
456,978	0,0367
457,182	0,03766
457,387	0,03715
457,592	0,03808
457,796	0,03756
458,001	0,03821
458,206	0,03861
458,41	0,03976
458,615	0,03927
458,82	0,03948
459,024	0,0402
459,229	0,04024
459,433	0,04026
459,638	0,0406
459,842	0,04089
460,047	0,04168
460,251	0,04157
460,456	0,04144
460,66	0,04129
460,865	0,04171
461,069	0,04187
461,274	0,04183
461,478	0,04199
461,682	0,04229
461,887	0,04305
462,091	0,04341
462,296	0,04395
462,5	0,04434
462,704	0,04552
462,909	0,04556
463,113	0,04522
463,317	0,0454
463,522	0,04594
463,726	0,04653
463,93	0,04674
464,134	0,0467
464,339	0,04704
464,543	0,04666
464,747	0,04634
464,951	0,0464
465,155	0,04743
465,36	0,04868
465,564	0,04925
465,768	0,04893
465,972	0,04962
466,176	0,05007
466,38	0,051
466,584	0,05129
466,788	0,05186
466,993	0,05245
467,197	0,05252
467,401	0,053
467,605	0,05298
467,809	0,0534
468,013	0,05429
468,217	0,05394
468,421	0,05413
468,625	0,05389
468,829	0,05412
469,033	0,05436
469,236	0,05523
469,44	0,05511
469,644	0,05502
469,848	0,05524
470,052	0,05626
470,256	0,05605
470,46	0,05673
470,664	0,05728
470,867	0,0579
471,071	0,05854
471,275	0,05889
471,479	0,05941
471,683	0,06001
471,886	0,06067
472,09	0,06172
472,294	0,0612
472,497	0,06185
472,701	0,06187
472,905	0,0624
473,109	0,06318
473,312	0,06335
473,516	0,06427
473,719	0,06438
473,923	0,06529
474,127	0,06555
474,33	0,06547
474,534	0,06637
474,737	0,06711
474,941	0,06789
475,145	0,06808
475,348	0,06804
475,552	0,06876
475,755	0,06928
475,959	0,06983
476,162	0,07084
476,366	0,07181
476,569	0,07259
476,772	0,07312
476,976	0,07369
477,179	0,07434
477,383	0,07478
477,586	0,0753
477,789	0,07573
477,993	0,07651
478,196	0,07734
478,399	0,07763
478,603	0,07808
478,806	0,07889
479,009	0,07917
479,213	0,07952
479,416	0,07995
479,619	0,08101
479,822	0,08204
480,026	0,08325
480,229	0,08363
480,432	0,08442
480,635	0,08448
480,838	0,08493
481,041	0,08507
481,245	0,08583
481,448	0,0862
481,651	0,08697
481,854	0,0872
482,057	0,08739
482,26	0,08752
482,463	0,08792
482,666	0,08837
482,869	0,08941
483,072	0,08993
483,275	0,09083
483,478	0,09107
483,681	0,09217
483,884	0,09261
484,087	0,09355
484,29	0,0945
484,493	0,09518
484,696	0,09598
484,899	0,0969
485,102	0,09751
485,305	0,09832
485,508	0,09891
485,71	0,10007
485,913	0,10093
486,116	0,10159
486,319	0,10252
486,522	0,10307
486,725	0,10374
486,927	0,10461
487,13	0,1051
487,333	0,10584
487,536	0,10665
487,738	0,10772
487,941	0,10827
488,144	0,10906
488,346	0,11032
488,549	0,11075
488,752	0,11173
488,954	0,11271
489,157	0,1136
489,359	0,11456
489,562	0,11494
489,765	0,11562
489,967	0,11609
490,17	0,11753
490,372	0,11806
490,575	0,11829
490,777	0,11918
490,98	0,11967
491,182	0,1201
491,385	0,12077
491,587	0,1212
491,79	0,12241
491,992	0,12329
492,195	0,12435
492,397	0,12471
492,599	0,12561
492,802	0,12655
493,004	0,12763
493,207	0,12889
493,409	0,12994
493,611	0,1308
493,814	0,1316
494,016	0,13223
494,218	0,1329
494,42	0,13388
494,623	0,13502
494,825	0,1359
495,027	0,13668
495,229	0,13744
495,432	0,13789
495,634	0,1388
495,836	0,13974
496,038	0,14084
496,24	0,14199
496,442	0,14302
496,645	0,14358
496,847	0,14435
497,049	0,14513
497,251	0,14642
497,453	0,14736
497,655	0,14845
497,857	0,14967
498,059	0,15048
498,261	0,15123
498,463	0,15244
498,665	0,15372
498,867	0,15486
499,069	0,15593
499,271	0,15714
499,473	0,15798
499,675	0,15887
499,877	0,15994
500,079	0,16083
500,281	0,16194
500,482	0,16313
500,684	0,16395
500,886	0,16475
501,088	0,16588
501,29	0,16695
501,492	0,16791
501,693	0,16935
501,895	0,17054
502,097	0,17154
502,299	0,1724
502,5	0,17343
502,702	0,17442
502,904	0,17592
503,106	0,1771
503,307	0,17808
503,509	0,1791
503,711	0,18035
503,912	0,18119
504,114	0,18215
504,315	0,1833
504,517	0,18457
504,719	0,18599
504,92	0,18729
505,122	0,18827
505,323	0,18939
505,525	0,19074
505,726	0,19191
505,928	0,19302
506,129	0,19421
506,331	0,19566
506,532	0,19723
506,734	0,19841
506,935	0,19949
507,137	0,20071
507,338	0,20156
507,539	0,20269
507,741	0,20405
507,942	0,2052
508,143	0,20649
508,345	0,20786
508,546	0,20872
508,747	0,20984
508,949	0,21129
509,15	0,21242
509,351	0,21349
509,553	0,21475
509,754	0,21629
509,955	0,21723
510,156	0,21878
510,357	0,22001
510,559	0,2214
510,76	0,22306
510,961	0,2245
511,162	0,2261
511,363	0,22757
511,564	0,22919
511,766	0,23078
511,967	0,23199
512,168	0,23346
512,369	0,23483
512,57	0,23627
512,771	0,23767
512,972	0,23908
513,173	0,24068
513,374	0,24179
513,575	0,24324
513,776	0,24485
513,977	0,24614
514,178	0,2476
514,379	0,24904
514,58	0,2506
514,781	0,25245
514,981	0,25397
515,182	0,25513
515,383	0,25654
515,584	0,25788
515,785	0,25946
515,986	0,26092
516,187	0,2627
516,387	0,26423
516,588	0,26579
516,789	0,26706
516,99	0,26823
517,19	0,26957
517,391	0,27134
517,592	0,27278
517,793	0,2746
517,993	0,27603
518,194	0,27741
518,395	0,27873
518,595	0,28022
518,796	0,28182
518,996	0,28343
519,197	0,28509
519,398	0,28651
519,598	0,28824
519,799	0,28944
519,999	0,29069
520,2	0,29218
520,4	0,29368
520,601	0,29537
520,801	0,29702
521,002	0,2985
521,202	0,29987
521,403	0,30125
521,603	0,30295
521,804	0,30417
522,004	0,30585
522,204	0,30725
522,405	0,30878
522,605	0,31032
522,806	0,31201
523,006	0,31344
523,206	0,31511
523,407	0,31688
523,607	0,31851
523,807	0,32018
524,007	0,32157
524,208	0,3232
524,408	0,32478
524,608	0,32634
524,808	0,32808
525,009	0,32932
525,209	0,33067
525,409	0,33215
525,609	0,33337
525,809	0,335
526,009	0,33614
526,209	0,33782
526,41	0,3393
526,61	0,341
526,81	0,34253
527,01	0,34378
527,21	0,34513
527,41	0,34677
527,61	0,34807
527,81	0,34968
528,01	0,35091
528,21	0,35245
528,41	0,35381
528,61	0,35489
528,81	0,35628
529,01	0,35748
529,21	0,35891
529,41	0,36037
529,609	0,36165
529,809	0,36289
530,009	0,36417
530,209	0,36558
530,409	0,36677
530,609	0,36834
530,808	0,36987
531,008	0,37111
531,208	0,37265
531,408	0,37386
531,608	0,37503
531,807	0,37607
532,007	0,37739
532,207	0,37857
532,406	0,37971
532,606	0,38119
532,806	0,38238
533,005	0,38348
533,205	0,38451
533,405	0,38548
533,604	0,38689
533,804	0,38822
534,003	0,38987
534,203	0,39105
534,403	0,39234
534,602	0,39349
534,802	0,39453
535,001	0,39552
535,201	0,397
535,4	0,39815
535,6	0,39941
535,799	0,40044
535,998	0,40174
536,198	0,40257
536,397	0,4039
536,597	0,40487
536,796	0,40618
536,995	0,40728
537,195	0,40831
537,394	0,40914
537,594	0,41046
537,793	0,41151
537,992	0,41257
538,191	0,41354
538,391	0,41465
538,59	0,41546
538,789	0,41689
538,988	0,41786
539,188	0,41895
539,387	0,42026
539,586	0,42144
539,785	0,42228
539,984	0,42338
540,184	0,42422
540,383	0,42526
540,582	0,42622
540,781	0,42738
540,98	0,42786
541,179	0,4289
541,378	0,42969
541,577	0,43036
541,776	0,43138
541,975	0,43232
542,174	0,43298
542,373	0,43369
542,572	0,43444
542,771	0,4353
542,97	0,43596
543,169	0,437
543,368	0,43747
543,567	0,43835
543,766	0,43918
543,965	0,43953
544,164	0,4402
544,362	0,44114
544,561	0,44229
544,76	0,44299
544,959	0,44401
545,158	0,44497
545,356	0,4457
545,555	0,44634
545,754	0,44698
545,953	0,44779
546,151	0,44851
546,35	0,44935
546,549	0,44981
546,748	0,45001
546,946	0,45052
547,145	0,45079
547,344	0,45139
547,542	0,45176
547,741	0,45245
547,939	0,45269
548,138	0,45303
548,337	0,45366
548,535	0,45397
548,734	0,45426
548,932	0,45468
549,131	0,45486
549,329	0,45555
549,528	0,45577
549,726	0,45619
549,925	0,45667
550,123	0,45751
550,322	0,45812
550,52	0,45872
550,718	0,45923
550,917	0,45981
551,115	0,46039
551,313	0,4613
551,512	0,46165
551,71	0,46227
551,908	0,46291
552,107	0,4633
552,305	0,46345
552,503	0,46377
552,702	0,46373
552,9	0,46416
553,098	0,46489
553,296	0,46531
553,495	0,46581
553,693	0,46627
553,891	0,46676
554,089	0,46725
554,287	0,468
554,485	0,46864
554,683	0,46924
554,882	0,46991
555,08	0,47049
555,278	0,47078
555,476	0,47137
555,674	0,47178
555,872	0,47242
556,07	0,47259
556,268	0,47309
556,466	0,47335
556,664	0,47384
556,862	0,47424
557,06	0,47511
557,258	0,47583
557,456	0,47647
557,654	0,47706
557,851	0,47746
558,049	0,47768
558,247	0,47847
558,445	0,47895
558,643	0,47963
558,841	0,48037
559,039	0,48097
559,236	0,48142
559,434	0,48199
559,632	0,48279
559,83	0,48368
560,027	0,48446
560,225	0,48562
560,423	0,48635
560,62	0,48743
560,818	0,48789
561,016	0,48871
561,213	0,48967
561,411	0,49053
561,609	0,49117
561,806	0,49171
562,004	0,49227
562,202	0,49331
562,399	0,4939
562,597	0,49468
562,794	0,49506
562,992	0,49567
563,189	0,49623
563,387	0,49714
563,584	0,49807
563,782	0,49868
563,979	0,4995
564,177	0,50041
564,374	0,50123
564,571	0,50207
564,769	0,50289
564,966	0,50368
565,164	0,50494
565,361	0,50576
565,558	0,50652
565,756	0,50721
565,953	0,50841
566,15	0,50952
566,347	0,51048
566,545	0,51148
566,742	0,5124
566,939	0,5136
567,136	0,5147
567,334	0,51582
567,531	0,51697
567,728	0,51805
567,925	0,5192
568,122	0,52027
568,319	0,52148
568,517	0,52263
568,714	0,52354
568,911	0,52491
569,108	0,52607
569,305	0,52747
569,502	0,5288
569,699	0,53035
569,896	0,53153
570,093	0,53288
570,29	0,53423
570,487	0,53555
570,684	0,53709
570,881	0,53869
571,078	0,54006
571,275	0,54156
571,472	0,54317
571,669	0,54449
571,866	0,54562
572,062	0,54688
572,259	0,5482
572,456	0,54948
572,653	0,55094
572,85	0,55212
573,047	0,55342
573,243	0,55486
573,44	0,55599
573,637	0,55717
573,834	0,55841
574,03	0,56009
574,227	0,56183
574,424	0,56334
574,62	0,56504
574,817	0,56636
575,014	0,56802
575,21	0,56941
575,407	0,57079
575,604	0,57255
575,8	0,57425
575,997	0,57611
576,193	0,57728
576,39	0,57889
576,586	0,58051
576,783	0,58203
576,979	0,58338
577,176	0,58501
577,372	0,58658
577,569	0,58828
577,765	0,58971
577,962	0,59104
578,158	0,5926
578,355	0,59446
578,551	0,5958
578,747	0,59708
578,944	0,59855
579,14	0,60036
579,336	0,60157
579,533	0,60321
579,729	0,60438
579,925	0,60572
580,122	0,60708
580,318	0,60831
580,514	0,60963
580,71	0,61114
580,906	0,61277
581,103	0,61431
581,299	0,6156
581,495	0,61705
581,691	0,61822
581,887	0,61974
582,084	0,62129
582,28	0,62287
582,476	0,62412
582,672	0,62546
582,868	0,6268
583,064	0,62806
583,26	0,6289
583,456	0,62985
583,652	0,63071
583,848	0,63183
584,044	0,63281
584,24	0,63358
584,436	0,63441
584,632	0,63511
584,828	0,63569
585,024	0,63631
585,22	0,63696
585,416	0,63774
585,611	0,63866
585,807	0,63947
586,003	0,64021
586,199	0,64089
586,395	0,6415
586,591	0,64213
586,786	0,64294
586,982	0,64367
587,178	0,64423
587,374	0,64453
587,569	0,64513
587,765	0,64541
587,961	0,64573
588,156	0,64592
588,352	0,64608
588,548	0,64619
588,743	0,64631
588,939	0,64609
589,135	0,6462
589,33	0,6459
589,526	0,64597
589,721	0,6458
589,917	0,64573
590,112	0,6455
590,308	0,64529
590,503	0,64497
590,699	0,64486
590,894	0,64468
591,09	0,64457
591,285	0,6438
591,481	0,6435
591,676	0,64289
591,872	0,64218
592,067	0,64135
592,262	0,64071
592,458	0,64005
592,653	0,63949
592,848	0,63849
593,044	0,63732
593,239	0,63634
593,434	0,63553
593,629	0,63415
593,825	0,63311
594,02	0,63202
594,215	0,63103
594,41	0,62989
594,606	0,62834
594,801	0,62673
594,996	0,62552
595,191	0,62394
595,386	0,62246
595,581	0,62086
595,777	0,61954
595,972	0,61787
596,167	0,61611
596,362	0,61404
596,557	0,6122
596,752	0,61049
596,947	0,60867
597,142	0,60672
597,337	0,60476
597,532	0,60263
597,727	0,60027
597,922	0,59807
598,117	0,59572
598,312	0,59329
598,507	0,59099
598,701	0,58837
598,896	0,58571
599,091	0,58302
599,286	0,58034
599,481	0,5777
599,676	0,57497
599,87	0,57228
600,065	0,56951
600,26	0,56694
600,455	0,56417
600,65	0,56132
600,844	0,55861
601,039	0,55578
601,234	0,55308
601,428	0,5501
601,623	0,54711
601,818	0,54432
602,012	0,54154
602,207	0,53855
602,402	0,53539
602,596	0,53222
602,791	0,52919
602,985	0,52599
603,18	0,52273
603,374	0,51936
603,569	0,51613
603,763	0,5128
603,958	0,50931
604,152	0,50603
604,347	0,50245
604,541	0,49896
604,736	0,49553
604,93	0,4921
605,125	0,48857
605,319	0,48511
605,513	0,48155
605,708	0,47789
605,902	0,47429
606,096	0,47069
606,291	0,46724
606,485	0,46382
606,679	0,4604
606,874	0,45681
607,068	0,45316
607,262	0,4496
607,456	0,44612
607,65	0,4425
607,845	0,43906
608,039	0,43543
608,233	0,43185
608,427	0,42803
608,621	0,42438
608,815	0,42078
609,01	0,4173
609,204	0,41388
609,398	0,41046
609,592	0,40691
609,786	0,40356
609,98	0,40013
610,174	0,39668
610,368	0,39319
610,562	0,38967
610,756	0,38599
610,95	0,38245
611,144	0,37879
611,338	0,37504
611,532	0,37129
611,726	0,36765
611,919	0,36405
612,113	0,36037
612,307	0,35682
612,501	0,35313
612,695	0,3495
612,889	0,34611
613,082	0,34241
613,276	0,33895
613,47	0,33563
613,664	0,33212
613,857	0,32846
614,051	0,32492
614,245	0,32139
614,439	0,31787
614,632	0,31459
614,826	0,31108
615,02	0,30754
615,213	0,30439
615,407	0,30112
615,6	0,29766
615,794	0,29442
615,988	0,29128
616,181	0,2881
616,375	0,28495
616,568	0,28185
616,762	0,27874
616,955	0,27567
617,149	0,27277
617,342	0,26954
617,536	0,26642
617,729	0,26349
617,923	0,26054
618,116	0,25758
618,309	0,25445
618,503	0,25147
618,696	0,24857
618,889	0,24552
619,083	0,24257
619,276	0,23961
619,469	0,23673
619,663	0,23388
619,856	0,231
620,049	0,22814
620,242	0,22532
620,436	0,22262
620,629	0,2199
620,822	0,21713
621,015	0,21447
621,209	0,21199
621,402	0,20927
621,595	0,2067
621,788	0,20415
621,981	0,20163
622,174	0,19906
622,367	0,19658
622,56	0,19397
622,753	0,19156
622,946	0,18926
623,139	0,18679
623,332	0,1844
623,525	0,18214
623,718	0,17968
623,911	0,17738
624,104	0,17506
624,297	0,17273
624,49	0,17068
624,683	0,16864
624,876	0,16643
625,069	0,16412
625,262	0,16205
625,454	0,15981
625,647	0,15769
625,84	0,15556
626,033	0,15356
626,226	0,15154
626,418	0,1495
626,611	0,14728
626,804	0,14522
626,997	0,1431
627,189	0,14131
627,382	0,13938
627,575	0,13759
627,767	0,13577
627,96	0,13401
628,153	0,1321
628,345	0,13019
628,538	0,12861
628,731	0,12702
628,923	0,12528
629,116	0,12369
629,308	0,12187
629,501	0,12009
629,693	0,11846
629,886	0,11674
630,078	0,11501
630,271	0,11353
630,463	0,11202
630,656	0,11037
630,848	0,1087
631,04	0,10715
631,233	0,1057
631,425	0,10423
631,617	0,10275
631,81	0,10127
632,002	0,09988
632,194	0,09855
632,387	0,09707
632,579	0,09572
632,771	0,09427
632,964	0,093
633,156	0,09162
633,348	0,09027
633,54	0,08908
633,732	0,08785
633,925	0,08659
634,117	0,08544
634,309	0,08416
634,501	0,08298
634,693	0,08172
634,885	0,08058
635,077	0,07931
635,269	0,07825
635,462	0,07714
635,654	0,0759
635,846	0,07497
636,038	0,07376
636,23	0,07261
636,422	0,07163
636,614	0,07057
636,806	0,06955
636,997	0,06855
637,189	0,06756
637,381	0,06651
637,573	0,06551
637,765	0,06459
637,957	0,06345
638,149	0,06261
638,341	0,0617
638,532	0,06075
638,724	0,05984
638,916	0,059
639,108	0,05806
639,299	0,05726
639,491	0,05636
639,683	0,05561
639,875	0,05486
640,066	0,05413
640,258	0,05328
640,45	0,05249
640,641	0,05185
640,833	0,05111
641,025	0,05039
641,216	0,04969
641,408	0,04898
641,599	0,04836
641,791	0,04765
641,982	0,04685
642,174	0,04616
642,366	0,04553
642,557	0,04485
642,748	0,04402
642,94	0,0434
643,131	0,04272
643,323	0,04204
643,514	0,04142
643,706	0,04084
643,897	0,04019
644,088	0,03965
644,28	0,03909
644,471	0,03849
644,662	0,03796
644,854	0,0375
645,045	0,03699
645,236	0,03638
645,428	0,03597
645,619	0,03544
645,81	0,03488
646,001	0,03427
646,193	0,03376
646,384	0,03322
646,575	0,03274
646,766	0,03222
646,957	0,03175
647,148	0,03111
647,339	0,03069
647,531	0,03024
647,722	0,02975
647,913	0,02925
648,104	0,02895
648,295	0,02845
648,486	0,02807
648,677	0,02764
648,868	0,02727
649,059	0,0268
649,25	0,02649
649,441	0,02611
649,632	0,02562
649,823	0,02536
650,013	0,02505
650,204	0,02456
650,395	0,02417
650,586	0,02392
650,777	0,02353
650,968	0,02313
651,159	0,02287
651,349	0,0225
651,54	0,02209
651,731	0,02174
651,922	0,02138
652,112	0,02107
652,303	0,02081
652,494	0,02054
652,684	0,02011
652,875	0,01992
653,066	0,01971
653,256	0,01938
653,447	0,01904
653,638	0,0188
653,828	0,01854
654,019	0,01822
654,209	0,01793
654,4	0,0177
654,59	0,01755
654,781	0,01735
654,972	0,01703
655,162	0,01668
655,352	0,01643
655,543	0,01624
655,733	0,01604
655,924	0,01591
656,114	0,01566
656,305	0,01544
656,495	0,01527
656,685	0,01485
656,876	0,01464
657,066	0,01448
657,256	0,01432
657,447	0,01416
657,637	0,01395
657,827	0,01374
658,017	0,01353
658,208	0,01331
658,398	0,013
658,588	0,0127
658,778	0,01271
658,968	0,0125
659,159	0,01229
659,349	0,01206
659,539	0,01185
659,729	0,01174
659,919	0,01176
660,109	0,01157
660,299	0,01153
660,489	0,01157
660,679	0,0114
660,869	0,01119
661,059	0,01109
661,249	0,0109
661,439	0,01074
661,629	0,01056
661,819	0,0104
662,009	0,0102
662,199	0,01011
662,389	0,00989
662,579	0,0096
662,769	0,00952
662,959	0,00941
663,149	0,0093
663,338	0,00927
663,528	0,00924
663,718	0,00913
663,908	0,00894
664,097	0,00872
664,287	0,00848
664,477	0,00835
664,667	0,00829
664,856	0,00816
665,046	0,00806
665,236	0,00786
665,425	0,00765
665,615	0,00754
665,805	0,00744
665,994	0,00742
666,184	0,00734
666,373	0,00737
666,563	0,00733
666,753	0,00725
666,942	0,00712
667,132	0,00685
667,321	0,00681
667,511	0,00683
667,7	0,00679
667,889	0,00661
668,079	0,0065
668,268	0,00638
668,458	0,00625
668,647	0,0062
668,836	0,0061
669,026	0,00607
669,215	0,00608
669,404	0,0061
669,594	0,00594
669,783	0,00579
669,972	0,00593
670,162	0,00588
670,351	0,00579
670,54	0,00564
670,729	0,00545
670,919	0,00541
671,108	0,00533
671,297	0,00521
671,486	0,00507
671,675	0,00499
671,864	0,00491
672,053	0,00477
672,243	0,0047
672,432	0,00461
672,621	0,0046
672,81	0,00457
672,999	0,00443
673,188	0,00446
673,377	0,00447
673,566	0,00439
673,755	0,00433
673,944	0,00429
674,133	0,00415
674,322	0,00417
674,51	0,00422
674,699	0,00415
674,888	0,00407
675,077	0,004
675,266	0,00384
675,455	0,00384
675,644	0,0037
675,832	0,00364
676,021	0,0036
676,21	0,00371
676,399	0,00348
676,587	0,00337
676,776	0,00335
676,965	0,00332
677,153	0,00334
677,342	0,00332
677,531	0,0032
677,719	0,00321
677,908	0,0033
678,097	0,00325
678,285	0,00308
678,474	0,00315
678,662	0,00317
678,851	0,00315
679,039	0,00312
679,228	0,00306
679,416	0,00307
679,605	0,00305
679,793	0,00305
679,982	0,00291
680,17	0,00289
680,359	0,00294
680,547	0,00286
680,736	0,00276
680,924	0,00275
681,112	0,0027
681,301	0,00275
681,489	0,00271
681,677	0,00263
681,866	0,00255
682,054	0,00241
682,242	0,00234
682,43	0,00223
682,619	0,00221
682,807	0,00209
682,995	0,00196
683,183	0,00188
683,371	0,00187
683,559	0,00177
683,748	0,00173
683,936	0,00171
684,124	0,00181
684,312	0,00176
684,5	0,0017
684,688	0,0017
684,876	0,00172
685,064	0,00171
685,252	0,00177
685,44	0,00166
685,628	0,00165
685,816	0,00169
686,004	0,0017
686,192	0,00166
686,38	0,00166
686,568	0,00164
686,756	0,00156
686,944	0,00158
687,131	0,00165
687,319	0,00161
687,507	0,00158
687,695	0,00157
687,883	0,00155
688,07	0,00151
688,258	0,00148
688,446	0,0015
688,634	0,00159
688,821	0,00155
689,009	0,00152
689,197	0,00148
689,384	0,00153
689,572	0,00146
689,76	0,00141
689,947	0,00137
690,135	0,00131
690,323	0,00137
690,51	0,00132
690,698	0,00126
690,885	0,00137
691,073	0,00138
691,26	0,00129
691,448	0,00124
691,635	0,00125
691,823	0,00127
692,01	0,00127
692,197	0,00121
692,385	0,00119
692,572	0,00111
692,76	0,00111
692,947	0,00102
693,134	0,001
693,322	0,00102
693,509	0,00091
693,696	0,00084
693,884	0,00081
694,071	0,0008
694,258	0,00087
694,445	0,00075
694,633	0,00082
694,82	0,0007
695,007	0,00067
695,194	0,00064
695,381	0,00062
695,568	0,00062
695,756	0,00067
695,943	0,00062
696,13	0,0005
696,317	0,0005
696,504	0,00055
696,691	0,00055
696,878	0,0006
697,065	0,00049
697,252	0,00057
697,439	0,00056
697,626	0,00058
697,813	0,00065
698	0,00059
698,187	0,00055
698,374	0,00054
698,561	0,00057
698,747	0,00046
698,934	0,00042
699,121	0,00054
699,308	0,00046
699,495	0,00045
699,682	0,00031
699,868	0,00014
700,055	0,00018
700,242	0,00018
700,429	0,00013
700,615	0,00005
700,802	0,0001
700,989	0,00002
701,175	-0,00008
701,362	-0,00007
701,549	-0,00004
701,735	0,00002
701,922	0,00013
702,108	0,00013
702,295	0,00021
702,482	0,00014
702,668	0,00013
702,855	0,00012
703,041	0,0002
703,228	0,00032
703,414	0,00026
703,601	0,00023
703,787	0,00023
703,973	0,00013
704,16	0,00003
704,346	0,00005
704,533	0,00002
704,719	0,00001
704,905	-0,00012
705,092	-0,00014
705,278	-0,00022
705,464	-0,00025
705,65	-0,00021
705,837	-0,00021
706,023	-0,00022
706,209	-0,00008
706,395	-0,00007
706,582	-0,00007
706,768	-0,00004
706,954	0,00009
707,14	0,00001
707,326	0,0001
707,512	0
707,698	-0,00007
707,885	-0,00013
708,071	-0,00011
708,257	-0,00025
708,443	-0,00027
708,629	-0,00017
708,815	-0,00023
709,001	-0,00037
709,187	-0,00042
709,373	-0,00049
709,559	-0,00047
709,745	-0,00044
709,93	-0,00051
710,116	-0,00045
710,302	-0,00036
710,488	-0,00036
710,674	-0,0004
710,86	-0,0004
711,046	-0,00032
711,231	-0,00023
711,417	-0,00022
711,603	-0,00018
711,789	-0,00018
711,974	-0,00004
712,16	-0,00011
712,346	-0,00024
712,532	-0,00038
712,717	-0,00051
712,903	-0,00055
713,089	-0,00059
713,274	-0,00063
713,46	-0,00074
713,645	-0,00074
713,831	-0,00072
714,016	-0,00086
714,202	-0,00082
714,388	-0,0006
714,573	-0,00059
714,759	-0,00051
714,944	-0,00048
715,129	-0,0005
715,315	-0,00057
715,5	-0,00049
715,686	-0,00045
715,871	-0,00047
716,057	-0,00047
716,242	-0,00041
716,427	-0,00054
716,613	-0,00046
716,798	-0,00046
716,983	-0,00053
717,168	-0,00061
717,354	-0,00042
717,539	-0,00042
717,724	-0,00045
717,909	-0,00053
718,095	-0,00044
718,28	-0,00064
718,465	-0,00066
718,65	-0,00068
718,835	-0,00079
719,02	-0,00073
719,206	-0,00061
719,391	-0,00076
719,576	-0,00087
719,761	-0,00089
719,946	-0,00088
720,131	-0,00095
720,316	-0,00085
720,501	-0,00091
720,686	-0,00085
720,871	-0,00075
721,056	-0,00078
721,241	-0,00092
721,426	-0,00092
721,61	-0,00079
721,795	-0,00083
721,98	-0,0009
722,165	-0,00087
722,35	-0,00085
722,535	-0,0008
722,719	-0,0009
722,904	-0,00094
723,089	-0,00091
723,274	-0,00084
723,458	-0,00084
723,643	-0,00086
723,828	-0,00092
724,013	-0,00084
724,197	-0,0009
724,382	-0,00092
724,567	-0,00094
724,751	-0,00095
724,936	-0,00095
725,12	-0,00098
725,305	-0,00089
725,489	-0,00087
725,674	-0,00091
725,859	-0,00086
726,043	-0,00087
726,228	-0,00074
726,412	-0,00085
726,596	-0,00091
726,781	-0,00082
726,965	-0,0008
727,15	-0,0007
727,334	-0,00087
727,518	-0,00089
727,703	-0,00089
727,887	-0,00092
728,072	-0,00085
728,256	-0,00091
728,44	-0,00079
728,624	-0,00076
728,809	-0,00096
728,993	-0,00097
729,177	-0,00111
729,361	-0,00102
729,546	-0,00098
729,73	-0,00091
729,914	-0,00097
730,098	-0,00115
730,282	-0,00118
730,466	-0,00121
730,65	-0,00114
730,834	-0,00096
731,019	-0,00103
731,203	-0,00094
731,387	-0,00101
731,571	-0,00116
731,755	-0,00122
731,939	-0,00128
732,123	-0,0013
732,306	-0,00128
732,49	-0,00141
732,674	-0,00145
732,858	-0,00155
733,042	-0,00154
733,226	-0,00151
733,41	-0,00147
733,594	-0,00132
733,778	-0,00136
733,961	-0,00121
734,145	-0,00112
734,329	-0,00106
734,513	-0,00094
734,696	-0,00099
734,88	-0,00098
735,064	-0,00102
735,247	-0,00114
735,431	-0,00112
735,615	-0,00129
735,798	-0,00126
735,982	-0,00127
736,166	-0,00132
736,349	-0,00145
736,533	-0,00145
736,716	-0,00142
736,9	-0,00143
737,083	-0,00138
737,267	-0,00136
737,45	-0,00143
737,634	-0,00137
737,817	-0,00137
738,001	-0,00147
738,184	-0,00149
738,368	-0,00133
738,551	-0,00147
738,734	-0,00146
738,918	-0,00142
739,101	-0,00135
739,284	-0,00138
739,468	-0,00142
739,651	-0,00131
739,834	-0,00127
740,018	-0,00123
740,201	-0,00117
740,384	-0,00122
740,567	-0,00112
740,75	-0,0011
740,934	-0,00131
741,117	-0,00143
741,3	-0,00139
741,483	-0,00128
741,666	-0,0014
741,849	-0,00147
742,032	-0,00146
742,215	-0,0015
742,399	-0,00152
742,582	-0,00162
742,765	-0,00165
742,948	-0,0015
743,131	-0,00135
743,314	-0,00139
743,496	-0,00144
743,679	-0,00135
743,862	-0,00134
744,045	-0,00135
744,228	-0,00128
744,411	-0,00134
744,594	-0,00134
744,777	-0,00128
744,959	-0,00119
745,142	-0,00127
745,325	-0,00114
745,508	-0,00114
745,691	-0,00113
745,873	-0,00108
746,056	-0,00102
746,239	-0,00107
746,421	-0,00103
746,604	-0,00102
746,787	-0,00107
746,969	-0,00117
747,152	-0,00123
747,335	-0,00137
747,517	-0,00135
747,7	-0,00133
747,882	-0,0014
748,065	-0,00151
748,247	-0,00145
748,43	-0,00153
748,612	-0,00146
748,795	-0,00141
748,977	-0,00144
749,16	-0,0014
749,342	-0,00143
749,524	-0,00142
749,707	-0,00146
749,889	-0,00147
750,072	-0,00137
750,254	-0,00149
750,436	-0,00148
750,619	-0,00146
750,801	-0,00163
750,983	-0,00166
751,165	-0,00167
751,348	-0,00158
751,53	-0,00168
751,712	-0,00175
751,894	-0,00173
752,076	-0,0017
752,259	-0,00162
752,441	-0,00157
752,623	-0,00164
752,805	-0,00164
752,987	-0,0016
753,169	-0,00156
753,351	-0,00161
753,533	-0,00158
753,715	-0,00159
753,897	-0,00169
754,079	-0,00166
754,261	-0,00175
754,443	-0,00171
754,625	-0,00167
754,807	-0,00161
754,989	-0,00154
755,171	-0,00154
755,353	-0,00153
755,534	-0,00156
755,716	-0,00154
755,898	-0,00152
756,08	-0,00158
756,262	-0,00157
756,443	-0,00176
756,625	-0,0018
756,807	-0,00182
756,989	-0,0019
757,17	-0,00194
757,352	-0,00198
757,534	-0,00187
757,715	-0,00184
757,897	-0,0018
758,079	-0,00187
758,26	-0,00176
758,442	-0,00168
758,623	-0,00178
758,805	-0,00169
758,987	-0,00178
759,168	-0,00189
759,35	-0,0019
759,531	-0,00194
759,713	-0,00199
759,894	-0,00209
760,075	-0,00208
760,257	-0,00225
760,438	-0,00223
760,62	-0,00216
760,801	-0,00223
760,982	-0,00213
761,164	-0,00204
761,345	-0,00202
761,526	-0,00204
761,708	-0,00201
761,889	-0,00194
762,07	-0,00191
762,251	-0,0018
762,433	-0,00178
762,614	-0,00187
762,795	-0,00179
762,976	-0,00182
763,157	-0,00179
763,338	-0,00184
763,52	-0,0018
763,701	-0,00187
763,882	-0,00188
764,063	-0,00186
764,244	-0,00184
764,425	-0,00178
764,606	-0,00169
764,787	-0,00176
764,968	-0,00174
765,149	-0,00182
765,33	-0,00176
765,511	-0,00186
765,692	-0,00194
765,873	-0,00189
766,053	-0,00206
766,234	-0,00215
766,415	-0,00223
766,596	-0,00229
766,777	-0,00235
766,958	-0,00248
767,138	-0,00238
767,319	-0,00244
767,5	-0,00234
767,681	-0,0024
767,861	-0,00236
768,042	-0,00225
768,223	-0,0022
768,403	-0,00227
768,584	-0,00219
768,765	-0,00214
768,945	-0,00213
769,126	-0,00216
769,307	-0,00213
769,487	-0,00218
769,668	-0,00205
769,848	-0,0021
770,029	-0,00216
770,209	-0,00233
770,39	-0,00227
770,57	-0,00231
770,751	-0,00234
770,931	-0,00227
771,111	-0,00228
771,292	-0,00228
771,472	-0,00226
771,653	-0,00229
771,833	-0,0023
772,013	-0,00225
772,194	-0,00206
772,374	-0,00217
772,554	-0,00214
772,734	-0,00224
772,915	-0,00224
773,095	-0,00223
773,275	-0,00217
773,455	-0,00221
773,635	-0,00227
773,816	-0,00222
773,996	-0,0022
774,176	-0,00217
774,356	-0,00217
774,536	-0,00218
774,716	-0,00205
774,896	-0,00205
775,076	-0,00221
775,256	-0,00229
775,436	-0,00224
775,616	-0,00206
775,796	-0,00202
775,976	-0,00209
776,156	-0,00211
776,336	-0,00199
776,516	-0,00205
776,696	-0,00207
776,876	-0,00198
777,056	-0,00188
777,235	-0,0019
777,415	-0,0019
777,595	-0,00203
777,775	-0,00222
777,955	-0,00223
778,134	-0,00227
778,314	-0,0022
778,494	-0,00217
778,674	-0,00213
778,853	-0,00224
779,033	-0,00233
779,213	-0,00233
779,392	-0,0024
779,572	-0,00237
779,751	-0,00237
779,931	-0,00232
780,111	-0,00237
780,29	-0,00245
780,47	-0,00243
780,649	-0,00252
780,829	-0,00251
781,008	-0,00244
781,188	-0,00236
781,367	-0,00228
781,546	-0,00224
781,726	-0,00224
781,905	-0,00225
782,085	-0,00227
782,264	-0,00217
782,443	-0,00205
782,623	-0,00198
782,802	-0,00186
782,981	-0,00181
783,161	-0,00184
783,34	-0,00185
783,519	-0,00177
783,698	-0,00169
783,878	-0,0017
784,057	-0,00169
784,236	-0,00172
784,415	-0,00182
784,594	-0,00182
784,773	-0,00192
784,952	-0,00187
785,132	-0,00195
785,311	-0,00185
785,49	-0,00197
785,669	-0,00196
785,848	-0,00196
786,027	-0,002
786,206	-0,00199
786,385	-0,00213
786,564	-0,00204
786,743	-0,00202
786,922	-0,00199
787,1	-0,00195
787,279	-0,00202
787,458	-0,00215
787,637	-0,00206
787,816	-0,00197
787,995	-0,00204
788,174	-0,0021
788,352	-0,00201
788,531	-0,00209
788,71	-0,00219
788,889	-0,00228
789,067	-0,00235
789,246	-0,00247
789,425	-0,00232
789,603	-0,00242
789,782	-0,00258
789,961	-0,00249
790,139	-0,00242
790,318	-0,00248
790,496	-0,00244
790,675	-0,00225
790,853	-0,00229
791,032	-0,00228
791,211	-0,00223
791,389	-0,00233
791,568	-0,00222
791,746	-0,00207
791,924	-0,00199
792,103	-0,00203
792,281	-0,00198
792,46	-0,00203
792,638	-0,00209
792,816	-0,00198
792,995	-0,00191
793,173	-0,00184
793,351	-0,00181
793,53	-0,0018
793,708	-0,00186
793,886	-0,0019
794,064	-0,00192
794,243	-0,00193
794,421	-0,0019
794,599	-0,00197
794,777	-0,00213
794,955	-0,00222
795,133	-0,00219
795,312	-0,00225
795,49	-0,00237
795,668	-0,00238
795,846	-0,00245
796,024	-0,00238
796,202	-0,00239
796,38	-0,00248
796,558	-0,00254
796,736	-0,00244
796,914	-0,00231
797,092	-0,0025
797,27	-0,00244
797,448	-0,00254
797,626	-0,00265
797,803	-0,0026
797,981	-0,00278
798,159	-0,00282
798,337	-0,00281
798,515	-0,00277
798,693	-0,00285
798,87	-0,00299
799,048	-0,00288
799,226	-0,00282
799,404	-0,00268
799,581	-0,0026
799,759	-0,00271
799,937	-0,0027
800,114	-0,00259
800,292	-0,00257
800,469	-0,00246
800,647	-0,00247
800,825	-0,00246
801,002	-0,00258
801,18	-0,0027
801,357	-0,00274
801,535	-0,00273
801,712	-0,0026
801,89	-0,0026
802,067	-0,00271
802,245	-0,00275
802,422	-0,00298
802,6	-0,00293
802,777	-0,00292
802,954	-0,00286
803,132	-0,0028
803,309	-0,00285
803,486	-0,00282
803,664	-0,00287
803,841	-0,00267
804,018	-0,00257
804,195	-0,00258
804,373	-0,00259
804,55	-0,00253
804,727	-0,00253
804,904	-0,00249
805,081	-0,0024
805,259	-0,00244
805,436	-0,00272
805,613	-0,00277
805,79	-0,00299
805,967	-0,00302
806,144	-0,00312
806,321	-0,00302
806,498	-0,00306
806,675	-0,0031
806,852	-0,00314
807,029	-0,00322
807,206	-0,00318
807,383	-0,00287
807,56	-0,00283
807,737	-0,00279
807,914	-0,00282
808,091	-0,00266
808,268	-0,00252
808,444	-0,00249
808,621	-0,0025
808,798	-0,0027
808,975	-0,00265
809,152	-0,00262
809,328	-0,00277
809,505	-0,00272
809,682	-0,00271
809,858	-0,00275
810,035	-0,00286
810,212	-0,00317
810,388	-0,00318
810,565	-0,00294
810,742	-0,00276
810,918	-0,00283
811,095	-0,00287
811,271	-0,00271
811,448	-0,0028
811,625	-0,00281
811,801	-0,00281
811,978	-0,00269
812,154	-0,00261
812,33	-0,00254
812,507	-0,00257
812,683	-0,00252
812,86	-0,00244
813,036	-0,00237
813,212	-0,00241
813,389	-0,00236
813,565	-0,00242
813,741	-0,00242
813,918	-0,00249
814,094	-0,00231
814,27	-0,00244
814,447	-0,00251
814,623	-0,00255
814,799	-0,00263
814,975	-0,00264
815,151	-0,0026
815,328	-0,00273
815,504	-0,0026
815,68	-0,00257
815,856	-0,00257
816,032	-0,00255
816,208	-0,00252
816,384	-0,00269
816,56	-0,00277
816,736	-0,00286
816,912	-0,00291
817,088	-0,00303
817,264	-0,00277
817,44	-0,00277
817,616	-0,00281
817,792	-0,00289
817,968	-0,00297
818,144	-0,00281
818,32	-0,0026
818,495	-0,00252
818,671	-0,00233
818,847	-0,00245
819,023	-0,00235
819,199	-0,00246
819,374	-0,00233
819,55	-0,00233
819,726	-0,00205
819,902	-0,0021
820,077	-0,00227
820,253	-0,00238
820,429	-0,00241
820,604	-0,00226
820,78	-0,00214
820,956	-0,0022
821,131	-0,00213
821,307	-0,00209
821,482	-0,0021
821,658	-0,00211
821,833	-0,00219
822,009	-0,00226
822,184	-0,00228
822,36	-0,00223
822,535	-0,00254
822,711	-0,00255
822,886	-0,00254
823,061	-0,00275
823,237	-0,00285
823,412	-0,00276
823,587	-0,00296
823,763	-0,00304
823,938	-0,00302
824,113	-0,00298
824,289	-0,00303
824,464	-0,0028
824,639	-0,00261
824,814	-0,0027
824,99	-0,00264
825,165	-0,00279
825,34	-0,0027
825,515	-0,00259
825,69	-0,00239
825,865	-0,00237
826,04	-0,00229
826,215	-0,00208
826,39	-0,00206
826,566	-0,00221
826,741	-0,00207
826,916	-0,00189
827,091	-0,00182
827,265	-0,00183
827,44	-0,00198
827,615	-0,00194
827,79	-0,00197
827,965	-0,0021
828,14	-0,00231
828,315	-0,00233
828,49	-0,00234
828,665	-0,00236
828,839	-0,00252
829,014	-0,00259
829,189	-0,00276
829,364	-0,00259
829,538	-0,0025
829,713	-0,00246
829,888	-0,00245
830,063	-0,00249
830,237	-0,00268
830,412	-0,00258
830,587	-0,00256
830,761	-0,00242
830,936	-0,00245
831,11	-0,00248
831,285	-0,00255
831,459	-0,00259
831,634	-0,00266
831,809	-0,00258
831,983	-0,00263
832,157	-0,00259
832,332	-0,00277
832,506	-0,0028
832,681	-0,00291
832,855	-0,00295
833,03	-0,00295
833,204	-0,00291
833,378	-0,00303
833,553	-0,003
833,727	-0,00311
833,901	-0,00296
834,076	-0,00283
834,25	-0,00278
834,424	-0,00272
834,598	-0,00253
834,773	-0,00236
834,947	-0,00225
835,121	-0,00227
835,295	-0,0023
835,469	-0,0023
835,643	-0,0023
835,817	-0,00227
835,991	-0,00254
836,166	-0,00256
836,34	-0,00252
836,514	-0,00285
836,688	-0,00287
836,862	-0,00297
837,036	-0,0031
837,21	-0,00315
837,384	-0,00316
837,557	-0,00304
837,731	-0,00294
837,905	-0,0028
838,079	-0,00281
838,253	-0,00287
838,427	-0,00274
838,601	-0,00292
838,774	-0,00314
838,948	-0,00309
839,122	-0,00297
839,296	-0,00283
839,469	-0,00274
839,643	-0,00307
839,817	-0,00331
839,991	-0,00327
840,164	-0,00327
840,338	-0,00349
840,512	-0,00333
840,685	-0,00299
840,859	-0,00291
841,032	-0,00299
841,206	-0,00305
841,379	-0,00322
841,553	-0,00301
841,726	-0,00263
841,9	-0,00259
842,073	-0,00258
842,247	-0,00228
842,42	-0,00244
842,594	-0,00239
842,767	-0,00255
842,94	-0,00254
843,114	-0,00229
843,287	-0,0022
843,46	-0,00227
843,634	-0,00246
843,807	-0,00269
843,98	-0,00286
844,154	-0,00296
844,327	-0,00284
844,5	-0,00275
844,673	-0,00256
844,846	-0,00265
845,02	-0,00296
845,193	-0,00307
845,366	-0,00312
845,539	-0,00308
845,712	-0,00287
845,885	-0,00298
846,058	-0,00295
846,231	-0,00325
846,404	-0,00354
846,577	-0,00354
846,75	-0,00342
846,923	-0,00335
847,096	-0,00351
847,269	-0,00341
847,442	-0,00338
847,615	-0,00335
847,788	-0,00311
847,961	-0,00308
848,133	-0,00268
848,306	-0,00248
848,479	-0,00243
848,652	-0,00249
848,825	-0,0026
848,997	-0,00251
849,17	-0,00268
849,343	-0,00265
849,515	-0,00283
849,688	-0,00297
849,861	-0,003
850,033	-0,00316
850,206	-0,00324
850,379	-0,00325
850,551	-0,00322
850,724	-0,00323
850,896	-0,00321
851,069	-0,00303
851,241	-0,00308
851,414	-0,00293
851,586	-0,00298
851,759	-0,00296
851,931	-0,00298
852,104	-0,00317
852,276	-0,0034
852,449	-0,00333
852,621	-0,00331
852,793	-0,00325
852,966	-0,00315
853,138	-0,00298
853,31	-0,00303
853,483	-0,00303
853,655	-0,00315
853,827	-0,00326
853,999	-0,00318
854,172	-0,00302
854,344	-0,00304
854,516	-0,0031
854,688	-0,00324
854,86	-0,00334
855,032	-0,00378
855,204	-0,00386
855,377	-0,00394
855,549	-0,00397
855,721	-0,004
855,893	-0,00396
856,065	-0,00414
856,237	-0,00416
856,409	-0,00414
856,581	-0,00391
856,753	-0,00381
856,924	-0,00364
857,096	-0,00339
857,268	-0,00318
857,44	-0,00296
857,612	-0,00276
857,784	-0,00283
857,956	-0,00253
858,127	-0,00256
858,299	-0,00258
858,471	-0,00268
858,643	-0,003
858,814	-0,00295
858,986	-0,00305
859,158	-0,00306
859,33	-0,00309
859,501	-0,00321
859,673	-0,00316
859,844	-0,00321
860,016	-0,00332
860,188	-0,00317
860,359	-0,00298
860,531	-0,00292
860,702	-0,00294
860,874	-0,00322
861,045	-0,00343
861,217	-0,00351
861,388	-0,00349
861,56	-0,00349
861,731	-0,00365
861,902	-0,00355
862,074	-0,00368
862,245	-0,00391
862,417	-0,00392
862,588	-0,00396
862,759	-0,0038
862,931	-0,00376
863,102	-0,00381
863,273	-0,00376
863,444	-0,00381
863,616	-0,00383
863,787	-0,00388
863,958	-0,00397
864,129	-0,00399
864,3	-0,00403
864,471	-0,00412
864,642	-0,0041
864,814	-0,00396
864,985	-0,00405
865,156	-0,00411
865,327	-0,00421
865,498	-0,00407
865,669	-0,00414
865,84	-0,00396
866,011	-0,00375
866,182	-0,00362
866,353	-0,00362
866,523	-0,00398
866,694	-0,00384
866,865	-0,00365
867,036	-0,00357
867,207	-0,00361
867,378	-0,00393
867,549	-0,00393
867,719	-0,00419
867,89	-0,00449
868,061	-0,00448
868,232	-0,00443
868,402	-0,00422
868,573	-0,00457
868,744	-0,0044
868,914	-0,00434
869,085	-0,0042
869,256	-0,00385
869,426	-0,00414
869,597	-0,00402
869,767	-0,00387
869,938	-0,00389
870,108	-0,00388
870,279	-0,00347
870,449	-0,00362
870,62	-0,004
870,79	-0,00415
870,961	-0,00389
871,131	-0,00395
871,302	-0,00344
871,472	-0,00318
871,642	-0,00316
871,813	-0,0031
871,983	-0,0031
872,153	-0,00326
872,324	-0,00303
872,494	-0,00303
872,664	-0,00315
872,835	-0,00308
873,005	-0,00307
873,175	-0,00327
873,345	-0,00328
873,515	-0,00335
873,685	-0,00343
873,856	-0,00314
874,026	-0,00325
874,196	-0,00311
874,366	-0,0032
874,536	-0,0031
874,706	-0,00365
874,876	-0,00382
875,046	-0,00382
875,216	-0,00403
875,386	-0,0039
875,556	-0,00359
875,726	-0,00377
875,896	-0,00368
876,066	-0,00353
876,236	-0,00354
876,405	-0,00351
876,575	-0,00337
876,745	-0,00343
876,915	-0,00318
877,085	-0,00303
877,254	-0,00308
877,424	-0,00323
877,594	-0,00311
877,764	-0,00321
877,933	-0,00334
878,103	-0,00326
878,273	-0,00298
878,442	-0,00286
878,612	-0,00279
878,781	-0,00293
878,951	-0,00279
879,121	-0,00307
879,29	-0,00333
879,46	-0,00351
879,629	-0,00333
879,799	-0,00338
879,968	-0,00302
880,138	-0,00306
880,307	-0,00297
880,476	-0,00294
880,646	-0,00339
880,815	-0,00363
880,985	-0,00354
881,154	-0,0033
881,323	-0,00323
881,493	-0,00326
881,662	-0,00349
881,831	-0,00355
882	-0,00379
882,17	-0,00378
882,339	-0,00381
882,508	-0,0035
882,677	-0,00345
882,846	-0,00303
883,016	-0,00327
883,185	-0,0034
883,354	-0,00342
883,523	-0,0035
883,692	-0,0034
883,861	-0,00337
884,03	-0,00374
884,199	-0,00377
884,368	-0,00347
884,537	-0,00373
884,706	-0,00405
884,875	-0,00385
885,044	-0,00348
885,213	-0,0037
885,382	-0,00352
885,55	-0,00362
885,719	-0,0035
885,888	-0,00318
886,057	-0,00333
886,226	-0,00361
886,395	-0,00347
886,563	-0,0034
886,732	-0,00336
886,901	-0,00354
887,069	-0,00339
887,238	-0,00339
887,407	-0,00337
887,575	-0,00325
887,744	-0,00326
887,913	-0,0031
888,081	-0,00314
888,25	-0,00297
888,418	-0,00306
888,587	-0,00312
888,755	-0,00336
888,924	-0,00319
889,092	-0,00311
889,261	-0,00351
889,429	-0,00396
889,598	-0,00373
889,766	-0,00359
889,935	-0,00353
890,103	-0,00371
890,271	-0,00379
890,44	-0,00403
890,608	-0,00414
890,776	-0,00424
890,944	-0,0041
891,113	-0,00371
891,281	-0,00378
891,449	-0,00421
891,617	-0,00466
891,786	-0,0048
891,954	-0,00472
892,122	-0,0043
892,29	-0,00364
892,458	-0,0034
892,626	-0,00357
892,794	-0,00371
892,962	-0,00386
893,13	-0,00351
893,298	-0,00324
893,466	-0,00245
