Data from Chemiepractica_Absorbance__29__11-44-53-058.txt Node

Date: Mon Dec 09 11:44:53 CET 2024
User: r0948668
Spectrometer: USB4F07138
Trigger mode: 4
Integration Time (sec): 6,000000E-3
Scans to average: 20
Electric dark correction enabled: true
Nonlinearity correction enabled: false
Boxcar width: 5
XAxis mode: Wavelengths
Number of Pixels in Spectrum: 3648
>>>>>Begin Spectral Data<<<<<
176,779	-0,29683
176,999	-0,97609
177,218	-0,12552
177,438	-0
177,658	-0,13688
177,878	0,06222
178,097	0,09375
178,317	-0,11324
178,537	0,02018
178,757	0,193
178,976	-0,15758
179,196	0,2644
179,416	0,09752
179,635	0,2374
179,855	0,24052
180,075	0,19322
180,294	0,13229
180,514	0,08744
180,734	0,10839
180,953	0,11027
181,173	0,09321
181,392	0,08686
181,612	0,06407
181,832	0,07067
182,051	0,07037
182,271	0,05194
182,49	0,04806
182,71	0,04412
182,929	0,05319
183,149	0,03807
183,368	0,04033
183,588	0,03003
183,807	0,03064
184,027	0,03764
184,246	0,03045
184,466	0,01379
184,685	0,01829
184,905	0,00987
185,124	0,01746
185,344	0,01508
185,563	0,02327
185,782	0,01499
186,002	0,0218
186,221	0,01845
186,44	0,01753
186,66	0,02929
186,879	0,04871
187,099	0,03773
187,318	0,04463
187,537	0,02799
187,756	0,02239
187,976	0,01005
188,195	0,01647
188,414	0,02193
188,634	0,03834
188,853	0,03434
189,072	0,03291
189,291	0,02012
189,511	0,04089
189,73	0,04705
189,949	0,06547
190,168	0,0662
190,387	0,08382
190,607	0,07815
190,826	0,06591
191,045	0,06237
191,264	0,0601
191,483	0,04644
191,702	0,05283
191,921	0,03921
192,141	0,04503
192,36	0,03064
192,579	0,02952
192,798	0,02191
193,017	0,01993
193,236	0,0296
193,455	0,018
193,674	0,02798
193,893	0,028
194,112	0,03169
194,331	0,03495
194,55	0,02315
194,769	0,02798
194,988	0,03348
195,207	0,04033
195,426	0,04742
195,645	0,05005
195,864	0,06591
196,083	0,04829
196,302	0,03948
196,521	0,03635
196,739	0,03445
196,958	0,03746
197,177	0,03134
197,396	0,02613
197,615	0,02691
197,834	0,00933
198,053	-0,0035
198,271	-0,01535
198,49	-0,00266
198,709	0,00642
198,928	0,01706
199,147	0,01829
199,365	0,03505
199,584	0,03095
199,803	0,02296
200,022	0,01971
200,24	0,02759
200,459	0,03137
200,678	0,03737
200,897	0,03106
201,115	0,03063
201,334	0,03365
201,553	0,02418
201,771	-0,00028
201,99	0,00528
202,209	0,03089
202,427	0,02241
202,646	0,02982
202,864	0,03316
203,083	0,01727
203,302	0,02121
203,52	0,03111
203,739	0,02481
203,957	0,04685
204,176	0,05801
204,394	0,06367
204,613	0,0634
204,831	0,07302
205,05	0,06917
205,268	0,07085
205,487	0,07838
205,705	0,08331
205,924	0,07868
206,142	0,07818
206,361	0,06291
206,579	0,0673
206,798	0,07884
207,016	0,07003
207,234	0,0668
207,453	0,06682
207,671	0,07614
207,89	0,07497
208,108	0,06403
208,326	0,05871
208,545	0,04555
208,763	0,05177
208,981	0,04631
209,2	0,0145
209,418	0,00245
209,636	-0,00022
209,855	-0,0004
210,073	-0,01766
210,291	-0,02026
210,509	-0,01483
210,728	-0,01507
210,946	-0,01057
211,164	-0,01669
211,382	-0,01796
211,6	0,01068
211,819	0,01505
212,037	0,01314
212,255	-0,003
212,473	0,00919
212,691	0,00979
212,909	0,01866
213,128	0,00388
213,346	0,00784
213,564	0,01478
213,782	0,01349
214	0,0189
214,218	0,03197
214,436	0,04358
214,654	0,05154
214,872	0,04317
215,09	0,04189
215,308	0,03795
215,526	0,04779
215,744	0,04044
215,962	0,0384
216,18	0,03683
216,398	0,01853
216,616	-0,00099
216,834	-0,00851
217,052	-0,00377
217,27	-0,01505
217,488	-0,00796
217,706	-0,00973
217,924	-0,01036
218,142	-0,00224
218,36	0,00192
218,578	0,01207
218,795	0,00424
219,013	0,01606
219,231	0,0077
219,449	-0,0026
219,667	0,00705
219,885	0,00501
220,102	0,00794
220,32	0,00351
220,538	0,00457
220,756	-0,00227
220,973	0,00372
221,191	0,0124
221,409	0,01517
221,627	0,01915
221,844	0,02704
222,062	0,02929
222,28	0,03479
222,497	0,0243
222,715	0,03392
222,933	0,02591
223,15	0,02013
223,368	0,00486
223,586	0,01064
223,803	0,01236
224,021	0,01915
224,239	0,0275
224,456	0,02692
224,674	0,01842
224,891	0,02495
225,109	0,02297
225,326	0,02411
225,544	0,02651
225,762	0,01927
225,979	0,02864
226,197	0,02209
226,414	0,01251
226,632	-0,00483
226,849	-0,01383
227,066	-0,00209
227,284	0,00429
227,501	0,01752
227,719	0,01941
227,936	0,03614
228,154	0,05702
228,371	0,05029
228,588	0,0541
228,806	0,06045
229,023	0,07474
229,241	0,09752
229,458	0,09732
229,675	0,09585
229,893	0,07982
230,11	0,08232
230,327	0,05891
230,545	0,04521
230,762	0,03686
230,979	0,04743
231,196	0,0438
231,414	0,03193
231,631	0,01301
231,848	-0,00742
232,065	-0,01363
232,283	-0,01049
232,5	-0,01509
232,717	-0,0112
232,934	-0,00937
233,151	-0,00357
233,368	-0,0075
233,586	-0,0023
233,803	0,00709
234,02	0,02742
234,237	0,04074
234,454	0,04047
234,671	0,05636
234,888	0,06108
235,105	0,07146
235,322	0,08693
235,54	0,0862
235,757	0,08549
235,974	0,0835
236,191	0,07915
236,408	0,065
236,625	0,06191
236,842	0,06048
237,059	0,05641
237,276	0,04884
237,493	0,051
237,71	0,04746
237,926	0,0323
238,143	0,02073
238,36	0,02468
238,577	0,02109
238,794	0,01817
239,011	0,02064
239,228	0,03206
239,445	0,01898
239,662	0,0384
239,878	0,03909
240,095	0,03128
240,312	0,05076
240,529	0,06181
240,746	0,05653
240,963	0,0613
241,179	0,06745
241,396	0,07438
241,613	0,06699
241,83	0,07476
242,046	0,06317
242,263	0,06266
242,48	0,06378
242,697	0,05252
242,913	0,05045
243,13	0,04552
243,347	0,05443
243,563	0,05325
243,78	0,05573
243,997	0,06181
244,213	0,05528
244,43	0,06564
244,646	0,05819
244,863	0,05539
245,08	0,05588
245,296	0,04728
245,513	0,05292
245,729	0,05135
245,946	0,04728
246,162	0,03946
246,379	0,02891
246,595	0,02638
246,812	0,02142
247,028	0,03286
247,245	0,03121
247,461	0,03263
247,678	0,02754
247,894	0,03021
248,111	0,01703
248,327	0,02343
248,544	0,02259
248,76	0,03323
248,976	0,04573
249,193	0,03952
249,409	0,03442
249,626	0,03338
249,842	0,04231
250,058	0,05368
250,275	0,04663
250,491	0,05067
250,707	0,04905
250,924	0,05663
251,14	0,0507
251,356	0,0454
251,572	0,04302
251,789	0,04137
252,005	0,04986
252,221	0,04647
252,437	0,04717
252,654	0,05091
252,87	0,0522
253,086	0,05749
253,302	0,04249
253,518	0,04296
253,735	0,04069
253,951	0,04626
254,167	0,04525
254,383	0,03011
254,599	0,01202
254,815	0,01248
255,031	0,01015
255,247	-0,00251
255,463	-0,01112
255,68	0,00039
255,896	0,00138
256,112	0,00217
256,328	-0,00414
256,544	-0,00168
256,76	0,00841
256,976	0,00966
257,192	0,01458
257,408	0,02031
257,624	0,02841
257,84	0,03383
258,056	0,02642
258,272	0,03598
258,487	0,02573
258,703	0,03623
258,919	0,03963
259,135	0,043
259,351	0,05969
259,567	0,05734
259,783	0,06083
259,999	0,06638
260,215	0,05785
260,43	0,0537
260,646	0,0539
260,862	0,07108
261,078	0,05497
261,294	0,04202
261,509	0,03807
261,725	0,03515
261,941	0,03197
262,157	0,02699
262,372	0,02575
262,588	0,02752
262,804	0,04924
263,019	0,04038
263,235	0,02657
263,451	0,04089
263,667	0,06215
263,882	0,0703
264,098	0,07588
264,313	0,07239
264,529	0,06721
264,745	0,07021
264,96	0,06191
265,176	0,05193
265,391	0,04797
265,607	0,05923
265,823	0,04865
266,038	0,0337
266,254	0,03375
266,469	0,03314
266,685	0,02875
266,9	0,0275
267,116	0,03386
267,331	0,04615
267,547	0,04648
267,762	0,04755
267,978	0,05042
268,193	0,05434
268,408	0,06325
268,624	0,06645
268,839	0,06113
269,055	0,06149
269,27	0,06691
269,485	0,0568
269,701	0,05751
269,916	0,05181
270,132	0,05927
270,347	0,05833
270,562	0,05694
270,777	0,04878
270,993	0,04912
271,208	0,05835
271,423	0,07175
271,639	0,0712
271,854	0,07533
272,069	0,07459
272,284	0,0853
272,5	0,0766
272,715	0,06674
272,93	0,05793
273,145	0,05319
273,36	0,05428
273,576	0,05629
273,791	0,05098
274,006	0,04636
274,221	0,04508
274,436	0,05142
274,651	0,03746
274,866	0,04824
275,081	0,06548
275,296	0,07113
275,512	0,07735
275,727	0,07286
275,942	0,0642
276,157	0,06569
276,372	0,07494
276,587	0,08121
276,802	0,07253
277,017	0,0711
277,232	0,07089
277,447	0,05625
277,662	0,05221
277,877	0,04488
278,092	0,03573
278,306	0,04047
278,521	0,03191
278,736	0,02821
278,951	0,02418
279,166	0,0181
279,381	0,02086
279,596	0,01334
279,811	0,01308
280,025	0,01483
280,24	0,02159
280,455	0,02598
280,67	0,01561
280,885	0,01824
281,099	0,01765
281,314	0,00946
281,529	0,02011
281,744	0,03037
281,959	0,0297
282,173	0,0437
282,388	0,05662
282,603	0,05537
282,817	0,06136
283,032	0,07649
283,247	0,07125
283,461	0,06911
283,676	0,07001
283,891	0,05979
284,105	0,051
284,32	0,05423
284,535	0,04192
284,749	0,04201
284,964	0,0523
285,178	0,0527
285,393	0,04073
285,607	0,03883
285,822	0,04476
286,036	0,04923
286,251	0,05531
286,465	0,06714
286,68	0,06735
286,894	0,07103
287,109	0,06407
287,323	0,04629
287,538	0,0477
287,752	0,04512
287,967	0,05303
288,181	0,04279
288,396	0,04848
288,61	0,04961
288,824	0,04207
289,039	0,03675
289,253	0,03754
289,467	0,04499
289,682	0,05115
289,896	0,04697
290,11	0,05175
290,325	0,05865
290,539	0,05362
290,753	0,05196
290,968	0,05301
291,182	0,04679
291,396	0,05574
291,61	0,06017
291,825	0,06085
292,039	0,05746
292,253	0,06076
292,467	0,06165
292,681	0,04778
292,896	0,05843
293,11	0,05035
293,324	0,05758
293,538	0,07064
293,752	0,07132
293,966	0,06928
294,18	0,05576
294,394	0,0556
294,608	0,05507
294,823	0,0528
295,037	0,0589
295,251	0,05811
295,465	0,05989
295,679	0,04882
295,893	0,04344
296,107	0,03488
296,321	0,03808
296,535	0,03966
296,749	0,03609
296,963	0,02475
297,177	0,01871
297,391	0,01688
297,604	0,02249
297,818	0,01805
298,032	0,01344
298,246	0,00079
298,46	0,00972
298,674	0,00904
298,888	0,01623
299,102	0,023
299,315	0,03506
299,529	0,04933
299,743	0,05781
299,957	0,05179
300,171	0,05187
300,385	0,05823
300,598	0,06726
300,812	0,06289
301,026	0,06434
301,24	0,06507
301,453	0,06409
301,667	0,05538
301,881	0,05366
302,094	0,04635
302,308	0,04105
302,522	0,05839
302,735	0,06112
302,949	0,05819
303,163	0,05488
303,376	0,04565
303,59	0,04494
303,803	0,04598
304,017	0,05462
304,231	0,0508
304,444	0,05542
304,658	0,06569
304,871	0,05977
305,085	0,05283
305,298	0,05216
305,512	0,05353
305,725	0,05886
305,939	0,0588
306,152	0,04546
306,366	0,02387
306,579	0,02387
306,793	0,02564
307,006	0,02373
307,22	0,01083
307,433	0,01287
307,646	0,01387
307,86	0,01445
308,073	0,01255
308,286	0,0039
308,5	0,0124
308,713	0,02758
308,926	0,03193
309,14	0,02688
309,353	0,02519
309,566	0,0346
309,78	0,02914
309,993	0,0327
310,206	0,03565
310,419	0,03538
310,633	0,04174
310,846	0,05123
311,059	0,05132
311,272	0,04793
311,486	0,05086
311,699	0,05337
311,912	0,05551
312,125	0,06278
312,338	0,06239
312,551	0,0545
312,764	0,05558
312,978	0,0564
313,191	0,0578
313,404	0,05228
313,617	0,04598
313,83	0,04124
314,043	0,03977
314,256	0,03355
314,469	0,02211
314,682	0,01256
314,895	0,02082
315,108	0,02458
315,321	0,02222
315,534	0,01667
315,747	0,02334
315,96	0,03033
316,173	0,02674
316,386	0,02637
316,599	0,03119
316,812	0,04555
317,025	0,05358
317,237	0,05365
317,45	0,04649
317,663	0,05023
317,876	0,05303
318,089	0,05203
318,302	0,04138
318,515	0,03817
318,727	0,02963
318,94	0,02726
319,153	0,02
319,366	0,01805
319,578	0,00621
319,791	0,02108
320,004	0,0105
320,217	0,00316
320,429	0,00851
320,642	0,02069
320,855	0,02216
321,067	0,01791
321,28	0,01861
321,493	0,0247
321,705	0,02524
321,918	0,03886
322,131	0,02707
322,343	0,03421
322,556	0,04752
322,768	0,03676
322,981	0,02687
323,194	0,03503
323,406	0,0383
323,619	0,02408
323,831	0,02174
324,044	0,02234
324,256	0,0162
324,469	0,01062
324,681	0,01238
324,894	0,00263
325,106	0,00212
325,319	-0,00469
325,531	-0,00081
325,743	0,00386
325,956	0,01567
326,168	0,01504
326,381	0,01554
326,593	0,00783
326,805	0,01537
327,018	0,01461
327,23	0,01015
327,442	0,0177
327,655	0,02353
327,867	0,0151
328,079	0,02164
328,292	0,02793
328,504	0,03353
328,716	0,0285
328,928	0,04265
329,141	0,0421
329,353	0,03409
329,565	0,03919
329,777	0,03463
329,99	0,03778
330,202	0,04489
330,414	0,0336
330,626	0,02076
330,838	0,01896
331,05	0,01826
331,263	0,00931
331,475	0,01146
331,687	0,02098
331,899	0,02384
332,111	0,02693
332,323	0,02498
332,535	0,0246
332,747	0,03078
332,959	0,03744
333,171	0,0361
333,383	0,03874
333,595	0,04226
333,807	0,03789
334,019	0,03091
334,231	0,02861
334,443	0,02176
334,655	0,02047
334,867	0,01565
335,079	0,01487
335,291	0,00897
335,503	0,01183
335,714	0,02023
335,926	0,02774
336,138	0,02637
336,35	0,02651
336,562	0,02993
336,774	0,03038
336,986	0,03544
337,197	0,03754
337,409	0,03896
337,621	0,03821
337,833	0,03213
338,044	0,02834
338,256	0,02348
338,468	0,02755
338,68	0,03142
338,891	0,02596
339,103	0,02017
339,315	0,01639
339,526	0,00634
339,738	-0,00093
339,95	0,00216
340,161	0,01228
340,373	0,00274
340,585	-0,00931
340,796	-0,01261
341,008	-0,00851
341,219	-0,00608
341,431	0,00022
341,642	0,0077
341,854	0,01738
342,065	0,02679
342,277	0,02893
342,489	0,01535
342,7	0,02585
342,912	0,03262
343,123	0,03598
343,334	0,02906
343,546	0,02255
343,757	0,02457
343,969	0,01361
344,18	0,00963
344,392	0,00092
344,603	0,00418
344,814	0,01253
345,026	0,01312
345,237	0,01155
345,448	0,00742
345,66	0,01006
345,871	0,02406
346,082	0,02751
346,294	0,0332
346,505	0,03601
346,716	0,04666
346,927	0,04565
347,139	0,05445
347,35	0,04969
347,561	0,05582
347,772	0,05616
347,984	0,05746
348,195	0,05474
348,406	0,04418
348,617	0,05093
348,828	0,05093
349,039	0,04557
349,251	0,04376
349,462	0,03359
349,673	0,02535
349,884	0,01973
350,095	0,026
350,306	0,02035
350,517	0,02498
350,728	0,03221
350,939	0,02668
351,15	0,02247
351,361	0,02515
351,572	0,03376
351,783	0,03989
351,994	0,04571
352,205	0,04688
352,416	0,0407
352,627	0,04521
352,838	0,0343
353,049	0,04171
353,26	0,04664
353,471	0,04493
353,682	0,04251
353,893	0,04001
354,103	0,03284
354,314	0,02488
354,525	0,02752
354,736	0,03423
354,947	0,03446
355,157	0,03815
355,368	0,03243
355,579	0,02132
355,79	0,02813
356,001	0,02816
356,211	0,02945
356,422	0,02184
356,633	0,02846
356,843	0,0279
357,054	0,02462
357,265	0,02414
357,476	0,02519
357,686	0,02525
357,897	0,0332
358,107	0,02285
358,318	0,02536
358,529	0,01756
358,739	0,02749
358,95	0,02872
359,16	0,02883
359,371	0,01868
359,582	0,02107
359,792	0,02228
360,003	0,02284
360,213	0,0164
360,424	0,0312
360,634	0,03587
360,845	0,03688
361,055	0,03455
361,266	0,03988
361,476	0,04664
361,686	0,0583
361,897	0,06103
362,107	0,06004
362,318	0,05947
362,528	0,06456
362,738	0,05619
362,949	0,05203
363,159	0,05317
363,369	0,05664
363,58	0,04849
363,79	0,04324
364	0,04325
364,211	0,03458
364,421	0,02698
364,631	0,02882
364,842	0,02764
365,052	0,03028
365,262	0,02824
365,472	0,03115
365,682	0,0295
365,893	0,0367
366,103	0,04289
366,313	0,03892
366,523	0,04717
366,733	0,04652
366,943	0,04911
367,154	0,04819
367,364	0,05438
367,574	0,05493
367,784	0,04952
367,994	0,04967
368,204	0,05133
368,414	0,04559
368,624	0,04549
368,834	0,0422
369,044	0,04687
369,254	0,04222
369,464	0,04204
369,674	0,03702
369,884	0,03301
370,094	0,03569
370,304	0,03077
370,514	0,03116
370,724	0,02695
370,934	0,02471
371,144	0,02387
371,353	0,0261
371,563	0,02715
371,773	0,03028
371,983	0,02765
372,193	0,0306
372,403	0,03418
372,612	0,03598
372,822	0,03185
373,032	0,03204
373,242	0,03721
373,452	0,03284
373,661	0,0325
373,871	0,02892
374,081	0,02993
374,29	0,03542
374,5	0,03769
374,71	0,03086
374,92	0,03226
375,129	0,03352
375,339	0,03541
375,549	0,0319
375,758	0,03992
375,968	0,03912
376,177	0,03537
376,387	0,03123
376,597	0,02699
376,806	0,02867
377,016	0,03021
377,225	0,03091
377,435	0,02636
377,644	0,02739
377,854	0,02914
378,063	0,02378
378,273	0,02536
378,482	0,0325
378,692	0,03853
378,901	0,03638
379,111	0,03318
379,32	0,03219
379,529	0,02777
379,739	0,03007
379,948	0,02904
380,158	0,0303
380,367	0,03165
380,576	0,02639
380,786	0,02191
380,995	0,01775
381,204	0,0233
381,414	0,02121
381,623	0,02271
381,832	0,02672
382,041	0,02829
382,251	0,02855
382,46	0,0246
382,669	0,02239
382,878	0,02712
383,088	0,02697
383,297	0,02699
383,506	0,02468
383,715	0,02305
383,924	0,02251
384,133	0,02178
384,342	0,02482
384,552	0,0277
384,761	0,03333
384,97	0,03678
385,179	0,0407
385,388	0,04553
385,597	0,04372
385,806	0,04293
386,015	0,04592
386,224	0,04531
386,433	0,04394
386,642	0,04017
386,851	0,03769
387,06	0,03614
387,269	0,03153
387,478	0,02863
387,687	0,02847
387,896	0,03157
388,105	0,0328
388,314	0,0288
388,523	0,02994
388,731	0,03186
388,94	0,03169
389,149	0,03286
389,358	0,03113
389,567	0,03769
389,776	0,03323
389,984	0,03108
390,193	0,02955
390,402	0,02575
390,611	0,02776
390,819	0,02483
391,028	0,02175
391,237	0,02051
391,446	0,01798
391,654	0,01864
391,863	0,01367
392,072	0,01544
392,28	0,01865
392,489	0,01893
392,698	0,01765
392,906	0,01758
393,115	0,01853
393,324	0,02056
393,532	0,01932
393,741	0,01973
393,949	0,0191
394,158	0,02035
394,366	0,01951
394,575	0,01308
394,783	0,01204
394,992	0,01575
395,2	0,0151
395,409	0,01605
395,617	0,01276
395,826	0,01653
396,034	0,01404
396,243	0,01354
396,451	0,0135
396,66	0,01764
396,868	0,0186
397,076	0,01865
397,285	0,01486
397,493	0,01416
397,701	0,01455
397,91	0,01665
398,118	0,01613
398,326	0,01819
398,535	0,01494
398,743	0,01634
398,951	0,01442
399,159	0,01721
399,368	0,01772
399,576	0,01975
399,784	0,02424
399,992	0,02452
400,201	0,02207
400,409	0,01961
400,617	0,02108
400,825	0,02557
401,033	0,02569
401,241	0,02688
401,45	0,0273
401,658	0,0284
401,866	0,03076
402,074	0,02768
402,282	0,02619
402,49	0,02764
402,698	0,02934
402,906	0,02848
403,114	0,02438
403,322	0,02289
403,53	0,01965
403,738	0,01682
403,946	0,01432
404,154	0,0107
404,362	0,01136
404,57	0,01056
404,778	0,01003
404,986	0,00935
405,194	0,00795
405,402	0,01243
405,609	0,01096
405,817	0,00956
406,025	0,01189
406,233	0,01378
406,441	0,01495
406,649	0,01391
406,856	0,01619
407,064	0,01685
407,272	0,01606
407,48	0,01723
407,687	0,01618
407,895	0,01619
408,103	0,01655
408,311	0,01675
408,518	0,01465
408,726	0,0157
408,934	0,01701
409,141	0,01611
409,349	0,01381
409,557	0,01595
409,764	0,01591
409,972	0,01682
410,18	0,01544
410,387	0,01595
410,595	0,01634
410,802	0,01715
411,01	0,01752
411,217	0,01574
411,425	0,01549
411,632	0,01929
411,84	0,01678
412,047	0,01496
412,255	0,01162
412,462	0,01485
412,67	0,01434
412,877	0,01309
413,085	0,01235
413,292	0,0122
413,499	0,01337
413,707	0,01486
413,914	0,01383
414,122	0,01424
414,329	0,01596
414,536	0,01648
414,744	0,01596
414,951	0,01703
415,158	0,01629
415,366	0,0156
415,573	0,01451
415,78	0,01384
415,987	0,01069
416,195	0,01076
416,402	0,00938
416,609	0,00953
416,816	0,01168
417,023	0,01185
417,231	0,01268
417,438	0,01329
417,645	0,01397
417,852	0,01356
418,059	0,01523
418,266	0,01592
418,473	0,01445
418,68	0,01707
418,888	0,01554
419,095	0,01514
419,302	0,01451
419,509	0,01405
419,716	0,01534
419,923	0,01653
420,13	0,01582
420,337	0,01373
420,544	0,01579
420,751	0,0169
420,958	0,01602
421,165	0,01854
421,371	0,01576
421,578	0,01589
421,785	0,01526
421,992	0,01393
422,199	0,01426
422,406	0,01565
422,613	0,01697
422,82	0,01778
423,026	0,01842
423,233	0,01928
423,44	0,01603
423,647	0,01724
423,854	0,01691
424,06	0,01606
424,267	0,01465
424,474	0,01413
424,681	0,01357
424,887	0,01336
425,094	0,01055
425,301	0,01014
425,507	0,00834
425,714	0,00893
425,921	0,00846
426,127	0,00783
426,334	0,00931
426,54	0,01117
426,747	0,01104
426,954	0,01156
427,16	0,01223
427,367	0,01312
427,573	0,01289
427,78	0,01409
427,986	0,01469
428,193	0,01546
428,399	0,01747
428,606	0,01713
428,812	0,01673
429,019	0,01541
429,225	0,01571
429,432	0,01519
429,638	0,01519
429,845	0,01432
430,051	0,01455
430,257	0,01345
430,464	0,01328
430,67	0,01224
430,876	0,01165
431,083	0,01202
431,289	0,01352
431,495	0,01313
431,702	0,01305
431,908	0,01049
432,114	0,00958
432,32	0,00889
432,527	0,01028
432,733	0,01009
432,939	0,0095
433,145	0,00974
433,351	0,00986
433,558	0,01043
433,764	0,01059
433,97	0,00886
434,176	0,01062
434,382	0,01247
434,588	0,01257
434,794	0,01087
435,001	0,01063
435,207	0,01089
435,413	0,01061
435,619	0,01022
435,825	0,01005
436,031	0,00973
436,237	0,01128
436,443	0,01173
436,649	0,01166
436,855	0,01284
437,061	0,01432
437,267	0,01548
437,473	0,01498
437,679	0,01637
437,884	0,01585
438,09	0,0149
438,296	0,01471
438,502	0,01413
438,708	0,01438
438,914	0,01361
439,12	0,01205
439,325	0,01194
439,531	0,01197
439,737	0,01237
439,943	0,01187
440,149	0,01279
440,354	0,01306
440,56	0,01239
440,766	0,01231
440,972	0,01294
441,177	0,01384
441,383	0,01463
441,589	0,01468
441,794	0,01451
442	0,01438
442,206	0,01415
442,411	0,01383
442,617	0,01426
442,822	0,01605
443,028	0,01636
443,234	0,01672
443,439	0,01729
443,645	0,01702
443,85	0,01761
444,056	0,0175
444,261	0,01796
444,467	0,01833
444,672	0,01827
444,878	0,01904
445,083	0,01825
445,289	0,01794
445,494	0,01787
445,699	0,01779
445,905	0,01834
446,11	0,018
446,316	0,01873
446,521	0,01848
446,726	0,01767
446,932	0,01796
447,137	0,01748
447,342	0,01814
447,548	0,0178
447,753	0,0178
447,958	0,01682
448,164	0,01632
448,369	0,01641
448,574	0,01577
448,779	0,01592
448,984	0,01632
449,19	0,01647
449,395	0,01661
449,6	0,01592
449,805	0,01678
450,01	0,0167
450,215	0,01717
450,421	0,01792
450,626	0,0182
450,831	0,01753
451,036	0,01722
451,241	0,01828
451,446	0,01774
451,651	0,01825
451,856	0,01815
452,061	0,01848
452,266	0,01808
452,471	0,01812
452,676	0,01865
452,881	0,01913
453,086	0,02027
453,291	0,02079
453,496	0,02003
453,701	0,02126
453,906	0,02062
454,111	0,02081
454,316	0,02092
454,52	0,02144
454,725	0,02144
454,93	0,02087
455,135	0,02064
455,34	0,02056
455,545	0,02086
455,749	0,02125
455,954	0,02011
456,159	0,02051
456,364	0,02181
456,568	0,02188
456,773	0,02209
456,978	0,02324
457,182	0,02395
457,387	0,0246
457,592	0,02478
457,796	0,02478
458,001	0,02499
458,206	0,02544
458,41	0,02579
458,615	0,02497
458,82	0,02536
459,024	0,02586
459,229	0,02571
459,433	0,0254
459,638	0,0254
459,842	0,02528
460,047	0,02487
460,251	0,02503
460,456	0,02518
460,66	0,02524
460,865	0,02581
461,069	0,02652
461,274	0,02652
461,478	0,02641
461,682	0,02641
461,887	0,02635
462,091	0,02679
462,296	0,02774
462,5	0,02767
462,704	0,02844
462,909	0,02789
463,113	0,02738
463,317	0,02697
463,522	0,02741
463,726	0,02765
463,93	0,02822
464,134	0,02871
464,339	0,0288
464,543	0,02889
464,747	0,02923
464,951	0,02981
465,155	0,03036
465,36	0,03175
465,564	0,0318
465,768	0,03165
465,972	0,03205
466,176	0,03224
466,38	0,03208
466,584	0,03272
466,788	0,03278
466,993	0,03262
467,197	0,03233
467,401	0,03312
467,605	0,03253
467,809	0,03326
468,013	0,03359
468,217	0,03379
468,421	0,03373
468,625	0,03413
468,829	0,03441
469,033	0,03493
469,236	0,03584
469,44	0,03543
469,644	0,03532
469,848	0,03556
470,052	0,03599
470,256	0,0358
470,46	0,03595
470,664	0,03682
470,867	0,03685
471,071	0,03685
471,275	0,03699
471,479	0,03691
471,683	0,03763
471,886	0,03797
472,09	0,03845
472,294	0,03814
472,497	0,03821
472,701	0,03865
472,905	0,0388
473,109	0,0396
473,312	0,03973
473,516	0,04031
473,719	0,04058
473,923	0,04064
474,127	0,04103
474,33	0,04123
474,534	0,04228
474,737	0,04304
474,941	0,04314
475,145	0,04295
475,348	0,04286
475,552	0,04321
475,755	0,04337
475,959	0,04396
476,162	0,04456
476,366	0,04477
476,569	0,04501
476,772	0,04529
476,976	0,04533
477,179	0,04591
477,383	0,04635
477,586	0,04657
477,789	0,047
477,993	0,04752
478,196	0,04776
478,399	0,04806
478,603	0,04859
478,806	0,04911
479,009	0,04881
479,213	0,04928
479,416	0,04934
479,619	0,05006
479,822	0,05058
480,026	0,05094
480,229	0,05112
480,432	0,05152
480,635	0,05195
480,838	0,05222
481,041	0,05236
481,245	0,05292
481,448	0,05308
481,651	0,05337
481,854	0,05355
482,057	0,05358
482,26	0,0542
482,463	0,0546
482,666	0,05499
482,869	0,05552
483,072	0,05578
483,275	0,05616
483,478	0,05646
483,681	0,0575
483,884	0,05795
484,087	0,05847
484,29	0,05925
484,493	0,05968
484,696	0,05981
484,899	0,06035
485,102	0,06036
485,305	0,06054
485,508	0,06132
485,71	0,06177
485,913	0,0619
486,116	0,0626
486,319	0,06306
486,522	0,0633
486,725	0,06358
486,927	0,06446
487,13	0,06496
487,333	0,06601
487,536	0,06695
487,738	0,06733
487,941	0,06792
488,144	0,06837
488,346	0,0689
488,549	0,06908
488,752	0,06988
488,954	0,07053
489,157	0,07058
489,359	0,07091
489,562	0,07077
489,765	0,07121
489,967	0,07149
490,17	0,07211
490,372	0,07256
490,575	0,07294
490,777	0,07364
490,98	0,07386
491,182	0,07406
491,385	0,07476
491,587	0,07526
491,79	0,07603
491,992	0,07618
492,195	0,07685
492,397	0,07703
492,599	0,07757
492,802	0,07806
493,004	0,07874
493,207	0,07924
493,409	0,08007
493,611	0,08071
493,814	0,08128
494,016	0,08152
494,218	0,0822
494,42	0,08291
494,623	0,0837
494,825	0,08452
495,027	0,08485
495,229	0,08509
495,432	0,08574
495,634	0,08612
495,836	0,08655
496,038	0,08705
496,24	0,08778
496,442	0,08839
496,645	0,08877
496,847	0,08931
497,049	0,08948
497,251	0,09033
497,453	0,09119
497,655	0,09184
497,857	0,0926
498,059	0,09339
498,261	0,09385
498,463	0,09474
498,665	0,09551
498,867	0,09616
499,069	0,0967
499,271	0,09729
499,473	0,09791
499,675	0,09853
499,877	0,09904
500,079	0,09946
500,281	0,09969
500,482	0,10032
500,684	0,10107
500,886	0,10137
501,088	0,10202
501,29	0,10269
501,492	0,10354
501,693	0,10407
501,895	0,1048
502,097	0,10548
502,299	0,10619
502,5	0,10695
502,702	0,1078
502,904	0,10844
503,106	0,10959
503,307	0,1102
503,509	0,11085
503,711	0,11156
503,912	0,11241
504,114	0,113
504,315	0,11365
504,517	0,11456
504,719	0,11573
504,92	0,11639
505,122	0,11698
505,323	0,11751
505,525	0,11818
505,726	0,11897
505,928	0,1196
506,129	0,12026
506,331	0,12102
506,532	0,12206
506,734	0,12271
506,935	0,12333
507,137	0,124
507,338	0,12435
507,539	0,12491
507,741	0,126
507,942	0,12682
508,143	0,12769
508,345	0,12841
508,546	0,12907
508,747	0,12984
508,949	0,13059
509,15	0,13112
509,351	0,13192
509,553	0,13295
509,754	0,13404
509,955	0,13449
510,156	0,13551
510,357	0,13626
510,559	0,13706
510,76	0,13788
510,961	0,13872
511,162	0,13963
511,363	0,14049
511,564	0,14149
511,766	0,14249
511,967	0,14337
512,168	0,14445
512,369	0,14515
512,57	0,14595
512,771	0,1472
512,972	0,1482
513,173	0,14912
513,374	0,14985
513,575	0,15074
513,776	0,15157
513,977	0,15219
514,178	0,15323
514,379	0,15415
514,58	0,15485
514,781	0,15611
514,981	0,1567
515,182	0,15761
515,383	0,15855
515,584	0,15954
515,785	0,16057
515,986	0,1613
516,187	0,16254
516,387	0,16305
516,588	0,16407
516,789	0,16517
516,99	0,16599
517,19	0,16698
517,391	0,16784
517,592	0,16874
517,793	0,16968
517,993	0,17075
518,194	0,17199
518,395	0,17288
518,595	0,17391
518,796	0,17474
518,996	0,17567
519,197	0,17637
519,398	0,17747
519,598	0,17848
519,799	0,17925
519,999	0,1799
520,2	0,18085
520,4	0,18162
520,601	0,18285
520,801	0,18372
521,002	0,18466
521,202	0,18557
521,403	0,18661
521,603	0,18738
521,804	0,18807
522,004	0,18904
522,204	0,19039
522,405	0,19106
522,605	0,19199
522,806	0,19275
523,006	0,19385
523,206	0,19488
523,407	0,19596
523,607	0,19693
523,807	0,19771
524,007	0,19878
524,208	0,19977
524,408	0,20052
524,608	0,20175
524,808	0,20289
525,009	0,2038
525,209	0,20447
525,409	0,20537
525,609	0,20613
525,809	0,20736
526,009	0,20846
526,209	0,20955
526,41	0,21046
526,61	0,21148
526,81	0,21228
527,01	0,21293
527,21	0,2137
527,41	0,21474
527,61	0,21553
527,81	0,21647
528,01	0,2171
528,21	0,21807
528,41	0,21864
528,61	0,21939
528,81	0,22031
529,01	0,22118
529,21	0,22245
529,41	0,22314
529,609	0,22409
529,809	0,22488
530,009	0,22579
530,209	0,22688
530,409	0,22764
530,609	0,22877
530,808	0,22964
531,008	0,23051
531,208	0,23131
531,408	0,23204
531,608	0,23317
531,807	0,23387
532,007	0,23472
532,207	0,23533
532,406	0,23582
532,606	0,23665
532,806	0,23742
533,005	0,23832
533,205	0,23884
533,405	0,23956
533,604	0,2404
533,804	0,24126
534,003	0,24225
534,203	0,24299
534,403	0,24377
534,602	0,24465
534,802	0,24534
535,001	0,24609
535,201	0,24682
535,4	0,24745
535,6	0,24833
535,799	0,24882
535,998	0,24931
536,198	0,24975
536,397	0,25051
536,597	0,25138
536,796	0,25183
536,995	0,25254
537,195	0,25303
537,394	0,25358
537,594	0,25459
537,793	0,25515
537,992	0,25604
538,191	0,25684
538,391	0,25765
538,59	0,2583
538,789	0,25872
538,988	0,25928
539,188	0,25989
539,387	0,26078
539,586	0,26145
539,785	0,2619
539,984	0,2625
540,184	0,26275
540,383	0,26334
540,582	0,26381
540,781	0,26464
540,98	0,26542
541,179	0,26627
541,378	0,26681
541,577	0,26715
541,776	0,26772
541,975	0,26839
542,174	0,26878
542,373	0,26947
542,572	0,26981
542,771	0,27031
542,97	0,27053
543,169	0,27094
543,368	0,27124
543,567	0,27178
543,766	0,27235
543,965	0,27288
544,164	0,27327
544,362	0,27398
544,561	0,2746
544,76	0,27531
544,959	0,27589
545,158	0,27641
545,356	0,27683
545,555	0,27748
545,754	0,27803
545,953	0,27849
546,151	0,27894
546,35	0,27932
546,549	0,27947
546,748	0,27977
546,946	0,27988
547,145	0,28027
547,344	0,2807
547,542	0,28108
547,741	0,28132
547,939	0,28139
548,138	0,28156
548,337	0,28185
548,535	0,28213
548,734	0,28245
548,932	0,28262
549,131	0,28292
549,329	0,2831
549,528	0,28334
549,726	0,28364
549,925	0,28392
550,123	0,28407
550,322	0,28456
550,52	0,2849
550,718	0,28534
550,917	0,2857
551,115	0,28593
551,313	0,28629
551,512	0,28675
551,71	0,28714
551,908	0,28747
552,107	0,28799
552,305	0,28862
552,503	0,28885
552,702	0,289
552,9	0,28918
553,098	0,28954
553,296	0,28985
553,495	0,29034
553,693	0,29051
553,891	0,29074
554,089	0,29085
554,287	0,29101
554,485	0,29118
554,683	0,2913
554,882	0,29167
555,08	0,29215
555,278	0,29244
555,476	0,29293
555,674	0,29317
555,872	0,29356
556,07	0,29388
556,268	0,29436
556,466	0,29451
556,664	0,29487
556,862	0,29533
557,06	0,29584
557,258	0,296
557,456	0,29647
557,654	0,29684
557,851	0,29714
558,049	0,29727
558,247	0,29772
558,445	0,29822
558,643	0,29881
558,841	0,29921
559,039	0,29973
559,236	0,30008
559,434	0,30055
559,632	0,30082
559,83	0,30124
560,027	0,30139
560,225	0,30208
560,423	0,30245
560,62	0,30287
560,818	0,3031
561,016	0,30349
561,213	0,30387
561,411	0,30415
561,609	0,30462
561,806	0,30501
562,004	0,30532
562,202	0,30612
562,399	0,30647
562,597	0,30691
562,794	0,3073
562,992	0,30797
563,189	0,30859
563,387	0,30906
563,584	0,30964
563,782	0,31008
563,979	0,3107
564,177	0,31141
564,374	0,31186
564,571	0,31252
564,769	0,31295
564,966	0,31353
565,164	0,31408
565,361	0,31448
565,558	0,31523
565,756	0,31569
565,953	0,31637
566,15	0,31705
566,347	0,31763
566,545	0,31816
566,742	0,31875
566,939	0,31951
567,136	0,32005
567,334	0,32063
567,531	0,32144
567,728	0,32191
567,925	0,32273
568,122	0,32348
568,319	0,32418
568,517	0,32492
568,714	0,32581
568,911	0,32656
569,108	0,32736
569,305	0,32837
569,502	0,32924
569,699	0,33003
569,896	0,33081
570,093	0,33158
570,29	0,33243
570,487	0,33322
570,684	0,3342
570,881	0,33504
571,078	0,33582
571,275	0,33656
571,472	0,33732
571,669	0,338
571,866	0,339
572,062	0,33986
572,259	0,34082
572,456	0,34139
572,653	0,34225
572,85	0,34302
573,047	0,3437
573,243	0,34457
573,44	0,34523
573,637	0,34594
573,834	0,34705
574,03	0,34772
574,227	0,34868
574,424	0,34964
574,62	0,35068
574,817	0,35156
575,014	0,35237
575,21	0,35345
575,407	0,35442
575,604	0,35562
575,8	0,35673
575,997	0,35771
576,193	0,35846
576,39	0,35947
576,586	0,36034
576,783	0,36141
576,979	0,36243
577,176	0,36337
577,372	0,3643
577,569	0,36533
577,765	0,36632
577,962	0,36731
578,158	0,36818
578,355	0,36942
578,551	0,37026
578,747	0,37104
578,944	0,37202
579,14	0,37278
579,336	0,37372
579,533	0,37455
579,729	0,37547
579,925	0,37621
580,122	0,37706
580,318	0,37791
580,514	0,37869
580,71	0,37943
580,906	0,38047
581,103	0,38128
581,299	0,38226
581,495	0,38294
581,691	0,38393
581,887	0,38466
582,084	0,38558
582,28	0,38626
582,476	0,38707
582,672	0,38779
582,868	0,38882
583,064	0,38941
583,26	0,39007
583,456	0,39065
583,652	0,39139
583,848	0,39203
584,044	0,39264
584,24	0,39311
584,436	0,39379
584,632	0,39421
584,828	0,39477
585,024	0,39512
585,22	0,39573
585,416	0,39607
585,611	0,39673
585,807	0,39728
586,003	0,39773
586,199	0,39819
586,395	0,39856
586,591	0,39892
586,786	0,39947
586,982	0,39981
587,178	0,40026
587,374	0,40058
587,569	0,40099
587,765	0,40111
587,961	0,40135
588,156	0,40153
588,352	0,40162
588,548	0,40189
588,743	0,40206
588,939	0,40209
589,135	0,40223
589,33	0,40225
589,526	0,40219
589,721	0,40196
589,917	0,40202
590,112	0,40186
590,308	0,4015
590,503	0,40148
590,699	0,40114
590,894	0,40085
591,09	0,40061
591,285	0,40034
591,481	0,40006
591,676	0,3999
591,872	0,39966
592,067	0,3991
592,262	0,39888
592,458	0,39866
592,653	0,39839
592,848	0,39802
593,044	0,39762
593,239	0,39711
593,434	0,39654
593,629	0,39574
593,825	0,39498
594,02	0,39431
594,215	0,39365
594,41	0,39288
594,606	0,3921
594,801	0,39109
594,996	0,39037
595,191	0,38939
595,386	0,38836
595,581	0,38729
595,777	0,38653
595,972	0,38553
596,167	0,38437
596,362	0,38326
596,557	0,382
596,752	0,38091
596,947	0,37973
597,142	0,37839
597,337	0,3772
597,532	0,37611
597,727	0,37485
597,922	0,37344
598,117	0,372
598,312	0,3709
598,507	0,36952
598,701	0,36798
598,896	0,36637
599,091	0,36479
599,286	0,36329
599,481	0,36156
599,676	0,35994
599,87	0,35839
600,065	0,35675
600,26	0,35527
600,455	0,35344
600,65	0,35178
600,844	0,35004
601,039	0,34819
601,234	0,34645
601,428	0,34462
601,623	0,34295
601,818	0,34119
602,012	0,33947
602,207	0,33756
602,402	0,33539
602,596	0,3334
602,791	0,33153
602,985	0,32977
603,18	0,32793
603,374	0,32598
603,569	0,32405
603,763	0,32211
603,958	0,32004
604,152	0,31799
604,347	0,31597
604,541	0,31393
604,736	0,31187
604,93	0,30968
605,125	0,30737
605,319	0,30511
605,513	0,30288
605,708	0,30081
605,902	0,29844
606,096	0,29626
606,291	0,29398
606,485	0,29175
606,679	0,28973
606,874	0,28756
607,068	0,2853
607,262	0,28324
607,456	0,2813
607,65	0,27916
607,845	0,27684
608,039	0,2748
608,233	0,27242
608,427	0,27016
608,621	0,26793
608,815	0,26573
609,01	0,26356
609,204	0,26129
609,398	0,25919
609,592	0,25696
609,786	0,25487
609,98	0,25282
610,174	0,2506
610,368	0,24852
610,562	0,24627
610,756	0,24413
610,95	0,24195
611,144	0,23969
611,338	0,23752
611,532	0,23511
611,726	0,23296
611,919	0,23075
612,113	0,22848
612,307	0,22626
612,501	0,22408
612,695	0,22201
612,889	0,21986
613,082	0,21761
613,276	0,21553
613,47	0,21352
613,664	0,21141
613,857	0,20895
614,051	0,20681
614,245	0,20467
614,439	0,20256
614,632	0,20049
614,826	0,19829
615,02	0,19603
615,213	0,19409
615,407	0,19199
615,6	0,18984
615,794	0,18774
615,988	0,18585
616,181	0,18373
616,375	0,18173
616,568	0,17973
616,762	0,17762
616,955	0,17572
617,149	0,17393
617,342	0,17171
617,536	0,16976
617,729	0,16798
617,923	0,16622
618,116	0,16438
618,309	0,16251
618,503	0,1606
618,696	0,15875
618,889	0,15708
619,083	0,15522
619,276	0,15338
619,469	0,15163
619,663	0,14984
619,856	0,14797
620,049	0,14618
620,242	0,14442
620,436	0,14271
620,629	0,14109
620,822	0,13941
621,015	0,13757
621,209	0,13592
621,402	0,13432
621,595	0,1327
621,788	0,13121
621,981	0,12967
622,174	0,12793
622,367	0,12637
622,56	0,12469
622,753	0,12325
622,946	0,12162
623,139	0,12019
623,332	0,11872
623,525	0,11724
623,718	0,1158
623,911	0,11437
624,104	0,11284
624,297	0,11154
624,49	0,11024
624,683	0,10893
624,876	0,10738
625,069	0,10593
625,262	0,10469
625,454	0,10337
625,647	0,10197
625,84	0,10062
626,033	0,09926
626,226	0,09799
626,418	0,09673
626,611	0,09551
626,804	0,09431
626,997	0,0931
627,189	0,09198
627,382	0,09063
627,575	0,08946
627,767	0,08834
627,96	0,08722
628,153	0,086
628,345	0,08495
628,538	0,08382
628,731	0,08264
628,923	0,08151
629,116	0,08046
629,308	0,07934
629,501	0,07827
629,693	0,07728
629,886	0,07629
630,078	0,07517
630,271	0,07427
630,463	0,07317
630,656	0,07213
630,848	0,071
631,04	0,07002
631,233	0,06897
631,425	0,06813
631,617	0,06719
631,81	0,06621
632,002	0,06521
632,194	0,06438
632,387	0,06339
632,579	0,06249
632,771	0,06158
632,964	0,06083
633,156	0,05994
633,348	0,05913
633,54	0,05826
633,732	0,0574
633,925	0,05663
634,117	0,05601
634,309	0,05526
634,501	0,05448
634,693	0,05371
634,885	0,05299
635,077	0,05216
635,269	0,05144
635,462	0,05082
635,654	0,05012
635,846	0,04949
636,038	0,0487
636,23	0,04795
636,422	0,04724
636,614	0,04656
636,806	0,04603
636,997	0,04545
637,189	0,04486
637,381	0,04409
637,573	0,04337
637,765	0,04277
637,957	0,04212
638,149	0,04162
638,341	0,04105
638,532	0,04057
638,724	0,03996
638,916	0,0394
639,108	0,03876
639,299	0,03828
639,491	0,03791
639,683	0,03752
639,875	0,03698
640,066	0,03647
640,258	0,03583
640,45	0,03525
640,641	0,03475
640,833	0,03431
641,025	0,03384
641,216	0,03338
641,408	0,03287
641,599	0,03246
641,791	0,03201
641,982	0,03161
642,174	0,03122
642,366	0,03091
642,557	0,03044
642,748	0,02983
642,94	0,02946
643,131	0,02896
643,323	0,02852
643,514	0,0281
643,706	0,02764
643,897	0,02714
644,088	0,0267
644,28	0,02631
644,471	0,02588
644,662	0,02552
644,854	0,02527
645,045	0,0249
645,236	0,02448
645,428	0,02416
645,619	0,02382
645,81	0,02355
646,001	0,02309
646,193	0,0228
646,384	0,0224
646,575	0,02206
646,766	0,0218
646,957	0,02145
647,148	0,0211
647,339	0,02099
647,531	0,02078
647,722	0,02045
647,913	0,02005
648,104	0,0199
648,295	0,01956
648,486	0,01932
648,677	0,01892
648,868	0,01869
649,059	0,01838
649,25	0,01812
649,441	0,01768
649,632	0,01731
649,823	0,01714
650,013	0,01694
650,204	0,01663
650,395	0,01638
650,586	0,0162
650,777	0,01612
650,968	0,01578
651,159	0,01566
651,349	0,01544
651,54	0,01521
651,731	0,01497
651,922	0,0148
652,112	0,01455
652,303	0,01436
652,494	0,01418
652,684	0,01393
652,875	0,01365
653,066	0,01355
653,256	0,01336
653,447	0,0132
653,638	0,01307
653,828	0,01291
654,019	0,01265
654,209	0,01255
654,4	0,01236
654,59	0,01232
654,781	0,01217
654,972	0,01197
655,162	0,01181
655,352	0,01154
655,543	0,01133
655,733	0,01119
655,924	0,01112
656,114	0,01098
656,305	0,01075
656,495	0,01062
656,685	0,01028
656,876	0,01015
657,066	0,01005
657,256	0,00997
657,447	0,00995
657,637	0,00984
657,827	0,00976
658,017	0,00965
658,208	0,00948
658,398	0,00932
658,588	0,00927
658,778	0,00918
658,968	0,00898
659,159	0,0089
659,349	0,00874
659,539	0,00857
659,729	0,00846
659,919	0,00838
660,109	0,00821
660,299	0,00821
660,489	0,00821
660,679	0,00813
660,869	0,00807
661,059	0,00803
661,249	0,00787
661,439	0,00769
661,629	0,00753
661,819	0,00743
662,009	0,00717
662,199	0,00711
662,389	0,00695
662,579	0,00683
662,769	0,00657
662,959	0,00651
663,149	0,00649
663,338	0,00642
663,528	0,00641
663,718	0,00639
663,908	0,0062
664,097	0,00614
664,287	0,00593
664,477	0,00577
664,667	0,00561
664,856	0,00558
665,046	0,0055
665,236	0,00535
665,425	0,00534
665,615	0,00524
665,805	0,00518
665,994	0,00529
666,184	0,00525
666,373	0,00533
666,563	0,00536
666,753	0,00532
666,942	0,00524
667,132	0,00505
667,321	0,005
667,511	0,00487
667,7	0,00481
667,889	0,00462
668,079	0,00448
668,268	0,00443
668,458	0,00431
668,647	0,00425
668,836	0,00424
669,026	0,00418
669,215	0,00413
669,404	0,00409
669,594	0,00406
669,783	0,004
669,972	0,00404
670,162	0,00405
670,351	0,00396
670,54	0,00388
670,729	0,00386
670,919	0,00373
671,108	0,00373
671,297	0,00373
671,486	0,0037
671,675	0,0036
671,864	0,00351
672,053	0,00342
672,243	0,00332
672,432	0,00334
672,621	0,00337
672,81	0,00318
672,999	0,00323
673,188	0,00326
673,377	0,00322
673,566	0,00311
673,755	0,0031
673,944	0,00299
674,133	0,00295
674,322	0,0029
674,51	0,00287
674,699	0,00279
674,888	0,00283
675,077	0,0027
675,266	0,00264
675,455	0,00271
675,644	0,00276
675,832	0,00272
676,021	0,00274
676,21	0,00279
676,399	0,00268
676,587	0,0026
676,776	0,00253
676,965	0,00253
677,153	0,00254
677,342	0,0024
677,531	0,00225
677,719	0,00207
677,908	0,00208
678,097	0,00213
678,285	0,00204
678,474	0,0021
678,662	0,0021
678,851	0,00213
679,039	0,00197
679,228	0,00187
679,416	0,00192
679,605	0,00191
679,793	0,00196
679,982	0,00188
680,17	0,00176
680,359	0,0018
680,547	0,00174
680,736	0,00169
680,924	0,00179
681,112	0,00186
681,301	0,00199
681,489	0,00194
681,677	0,00193
681,866	0,00189
682,054	0,00182
682,242	0,00179
682,43	0,00179
682,619	0,00172
682,807	0,00171
682,995	0,0015
683,183	0,00141
683,371	0,00139
683,559	0,00137
683,748	0,0013
683,936	0,00129
684,124	0,00132
684,312	0,00136
684,5	0,00121
684,688	0,00132
684,876	0,00134
685,064	0,00132
685,252	0,00137
685,44	0,00127
685,628	0,00127
685,816	0,00132
686,004	0,00137
686,192	0,00128
686,38	0,00115
686,568	0,00118
686,756	0,00105
686,944	0,00096
687,131	0,00102
687,319	0,00102
687,507	0,001
687,695	0,0009
687,883	0,00078
688,07	0,00078
688,258	0,00081
688,446	0,00089
688,634	0,00095
688,821	0,0009
689,009	0,00092
689,197	0,00092
689,384	0,00093
689,572	0,00089
689,76	0,0009
689,947	0,00094
690,135	0,00089
690,323	0,001
690,51	0,001
690,698	0,00097
690,885	0,00117
691,073	0,00113
691,26	0,00106
691,448	0,00102
691,635	0,00112
691,823	0,00112
692,01	0,00104
692,197	0,00093
692,385	0,00089
692,572	0,00086
692,76	0,00082
692,947	0,00073
693,134	0,00077
693,322	0,00069
693,509	0,00067
693,696	0,00045
693,884	0,00039
694,071	0,00044
694,258	0,00052
694,445	0,0004
694,633	0,00038
694,82	0,00027
695,007	0,00018
695,194	0,00019
695,381	0,00023
695,568	0,00013
695,756	0,00028
695,943	0,0003
696,13	0,00029
696,317	0,00025
696,504	0,00029
696,691	0,00028
696,878	0,00031
697,065	0,00017
697,252	0,00019
697,439	0,00019
697,626	0,00014
697,813	0,00007
698	-0,00003
698,187	-0,0001
698,374	-0,00004
698,561	-0,00008
698,747	-0,00013
698,934	-0,00008
699,121	0,00005
699,308	-0,00011
699,495	-0,0001
699,682	-0,00002
699,868	-0,00009
700,055	-0,00007
700,242	-0,00015
700,429	-0,00029
700,615	-0,00027
700,802	-0,00032
700,989	-0,00034
701,175	-0,00042
701,362	-0,00034
701,549	-0,00038
701,735	-0,00036
701,922	-0,00025
702,108	-0,00017
702,295	-0,00011
702,482	-0,00009
702,668	-0,00008
702,855	-0,00003
703,041	-0,00002
703,228	0,00005
703,414	-0,00001
703,601	0
703,787	-0,00009
703,973	-0,00016
704,16	-0,00023
704,346	-0,0002
704,533	-0,00012
704,719	-0,00021
704,905	-0,00033
705,092	-0,00036
705,278	-0,0004
705,464	-0,00036
705,65	-0,00034
705,837	-0,00035
706,023	-0,00041
706,209	-0,00034
706,395	-0,00031
706,582	-0,00042
706,768	-0,00032
706,954	-0,00021
707,14	-0,0003
707,326	-0,00028
707,512	-0,00037
707,698	-0,00041
707,885	-0,00043
708,071	-0,00046
708,257	-0,00058
708,443	-0,00056
708,629	-0,00049
708,815	-0,00054
709,001	-0,00063
709,187	-0,00055
709,373	-0,00053
709,559	-0,00057
709,745	-0,00058
709,93	-0,00061
710,116	-0,00056
710,302	-0,00051
710,488	-0,0005
710,674	-0,00055
710,86	-0,00063
711,046	-0,00053
711,231	-0,00055
711,417	-0,00055
711,603	-0,00047
711,789	-0,00056
711,974	-0,00045
712,16	-0,00056
712,346	-0,00057
712,532	-0,00066
712,717	-0,00069
712,903	-0,00066
713,089	-0,00072
713,274	-0,00073
713,46	-0,00087
713,645	-0,00093
713,831	-0,0008
714,016	-0,00084
714,202	-0,00069
714,388	-0,00055
714,573	-0,00066
714,759	-0,0007
714,944	-0,00068
715,129	-0,00073
715,315	-0,00069
715,5	-0,00071
715,686	-0,00071
715,871	-0,00078
716,057	-0,00083
716,242	-0,0008
716,427	-0,00093
716,613	-0,00076
716,798	-0,00082
716,983	-0,00087
717,168	-0,00085
717,354	-0,0009
717,539	-0,00079
717,724	-0,00071
717,909	-0,00072
718,095	-0,00067
718,28	-0,00082
718,465	-0,00084
718,65	-0,00085
718,835	-0,00084
719,02	-0,00085
719,206	-0,00085
719,391	-0,00085
719,576	-0,001
719,761	-0,00104
719,946	-0,00103
720,131	-0,00103
720,316	-0,00094
720,501	-0,00095
720,686	-0,00095
720,871	-0,00082
721,056	-0,00079
721,241	-0,00088
721,426	-0,00092
721,61	-0,00086
721,795	-0,00086
721,98	-0,00088
722,165	-0,00087
722,35	-0,00084
722,535	-0,00085
722,719	-0,00099
722,904	-0,00109
723,089	-0,00108
723,274	-0,00098
723,458	-0,00102
723,643	-0,00095
723,828	-0,00101
724,013	-0,00106
724,197	-0,00112
724,382	-0,00116
724,567	-0,00117
724,751	-0,00107
724,936	-0,00103
725,12	-0,00108
725,305	-0,00109
725,489	-0,00104
725,674	-0,00107
725,859	-0,00098
726,043	-0,00092
726,228	-0,0009
726,412	-0,00096
726,596	-0,00096
726,781	-0,00095
726,965	-0,00094
727,15	-0,00084
727,334	-0,00091
727,518	-0,00098
727,703	-0,00088
727,887	-0,00098
728,072	-0,00091
728,256	-0,00096
728,44	-0,0009
728,624	-0,00086
728,809	-0,00095
728,993	-0,00092
729,177	-0,00101
729,361	-0,0009
729,546	-0,00086
729,73	-0,00088
729,914	-0,001
730,098	-0,00113
730,282	-0,00117
730,466	-0,00118
730,65	-0,00116
730,834	-0,00114
731,019	-0,00125
731,203	-0,00117
731,387	-0,00125
731,571	-0,00133
731,755	-0,00145
731,939	-0,00131
732,123	-0,00138
732,306	-0,00124
732,49	-0,00128
732,674	-0,0013
732,858	-0,0013
733,042	-0,00129
733,226	-0,00132
733,41	-0,00132
733,594	-0,00122
733,778	-0,00117
733,961	-0,00118
734,145	-0,00101
734,329	-0,00105
734,513	-0,00104
734,696	-0,00102
734,88	-0,00103
735,064	-0,00096
735,247	-0,00109
735,431	-0,00102
735,615	-0,00109
735,798	-0,00107
735,982	-0,00095
736,166	-0,00101
736,349	-0,00107
736,533	-0,00102
736,716	-0,00107
736,9	-0,00113
737,083	-0,00122
737,267	-0,00125
737,45	-0,00141
737,634	-0,00141
737,817	-0,00149
738,001	-0,00163
738,184	-0,0017
738,368	-0,0016
738,551	-0,00174
738,734	-0,00176
738,918	-0,00161
739,101	-0,00144
739,284	-0,00143
739,468	-0,00134
739,651	-0,00119
739,834	-0,00118
740,018	-0,00124
740,201	-0,00122
740,384	-0,00125
740,567	-0,00121
740,75	-0,00115
740,934	-0,00125
741,117	-0,00141
741,3	-0,00128
741,483	-0,00126
741,666	-0,00135
741,849	-0,00135
742,032	-0,00127
742,215	-0,00121
742,399	-0,00126
742,582	-0,00115
742,765	-0,00112
742,948	-0,00109
743,131	-0,001
743,314	-0,00114
743,496	-0,00119
743,679	-0,00116
743,862	-0,00107
744,045	-0,00105
744,228	-0,00109
744,411	-0,00112
744,594	-0,0012
744,777	-0,00123
744,959	-0,00127
745,142	-0,00128
745,325	-0,00115
745,508	-0,00121
745,691	-0,00112
745,873	-0,00125
746,056	-0,00131
746,239	-0,00134
746,421	-0,00122
746,604	-0,00117
746,787	-0,0012
746,969	-0,00113
747,152	-0,00122
747,335	-0,00132
747,517	-0,0012
747,7	-0,00123
747,882	-0,00112
748,065	-0,00118
748,247	-0,00116
748,43	-0,00129
748,612	-0,00143
748,795	-0,00143
748,977	-0,0014
749,16	-0,00143
749,342	-0,00137
749,524	-0,00137
749,707	-0,00152
749,889	-0,00156
750,072	-0,00152
750,254	-0,0016
750,436	-0,00158
750,619	-0,00142
750,801	-0,0015
750,983	-0,00165
751,165	-0,00161
751,348	-0,00161
751,53	-0,00166
751,712	-0,00166
751,894	-0,00179
752,076	-0,00166
752,259	-0,0016
752,441	-0,00162
752,623	-0,00168
752,805	-0,00174
752,987	-0,00165
753,169	-0,00168
753,351	-0,00178
753,533	-0,00176
753,715	-0,00172
753,897	-0,00169
754,079	-0,00179
754,261	-0,00185
754,443	-0,00191
754,625	-0,00195
754,807	-0,00186
754,989	-0,00186
755,171	-0,00181
755,353	-0,00173
755,534	-0,00179
755,716	-0,00182
755,898	-0,00175
756,08	-0,00166
756,262	-0,00167
756,443	-0,00172
756,625	-0,00168
756,807	-0,00177
756,989	-0,0019
757,17	-0,00201
757,352	-0,00199
757,534	-0,00182
757,715	-0,00185
757,897	-0,00187
758,079	-0,00204
758,26	-0,00203
758,442	-0,00187
758,623	-0,00192
758,805	-0,00182
758,987	-0,00182
759,168	-0,00177
759,35	-0,00194
759,531	-0,00204
759,713	-0,00207
759,894	-0,00216
760,075	-0,00209
760,257	-0,0022
760,438	-0,00222
760,62	-0,00218
760,801	-0,00224
760,982	-0,00221
761,164	-0,00224
761,345	-0,00212
761,526	-0,00212
761,708	-0,00208
761,889	-0,00206
762,07	-0,00212
762,251	-0,002
762,433	-0,00205
762,614	-0,00208
762,795	-0,00201
762,976	-0,00198
763,157	-0,00189
763,338	-0,002
763,52	-0,00211
763,701	-0,00211
763,882	-0,00207
764,063	-0,00202
764,244	-0,00198
764,425	-0,00194
764,606	-0,002
764,787	-0,00207
764,968	-0,00212
765,149	-0,00221
765,33	-0,00217
765,511	-0,00211
765,692	-0,00211
765,873	-0,00202
766,053	-0,00215
766,234	-0,00213
766,415	-0,0021
766,596	-0,00223
766,777	-0,00233
766,958	-0,00237
767,138	-0,00232
767,319	-0,00235
767,5	-0,00235
767,681	-0,00248
767,861	-0,00251
768,042	-0,00242
768,223	-0,00253
768,403	-0,00266
768,584	-0,00252
768,765	-0,00241
768,945	-0,00242
769,126	-0,00241
769,307	-0,00237
769,487	-0,00236
769,668	-0,00226
769,848	-0,00232
770,029	-0,00231
770,209	-0,0024
770,39	-0,00238
770,57	-0,00233
770,751	-0,00236
770,931	-0,00241
771,111	-0,00249
771,292	-0,00246
771,472	-0,00252
771,653	-0,00256
771,833	-0,00262
772,013	-0,0026
772,194	-0,00241
772,374	-0,00238
772,554	-0,00241
772,734	-0,00242
772,915	-0,00226
773,095	-0,00218
773,275	-0,0022
773,455	-0,00214
773,635	-0,0022
773,816	-0,00204
773,996	-0,00199
774,176	-0,00195
774,356	-0,00198
774,536	-0,00194
774,716	-0,002
774,896	-0,00207
775,076	-0,00215
775,256	-0,00209
775,436	-0,0021
775,616	-0,00196
775,796	-0,00208
775,976	-0,00214
776,156	-0,00222
776,336	-0,00219
776,516	-0,00221
776,696	-0,00216
776,876	-0,00216
777,056	-0,00215
777,235	-0,00224
777,415	-0,00222
777,595	-0,00232
777,775	-0,00238
777,955	-0,00247
778,134	-0,00264
778,314	-0,0026
778,494	-0,00268
778,674	-0,00259
778,853	-0,00267
779,033	-0,00265
779,213	-0,00265
779,392	-0,00265
779,572	-0,00257
779,751	-0,00259
779,931	-0,00246
780,111	-0,00236
780,29	-0,0025
780,47	-0,00249
780,649	-0,00259
780,829	-0,00241
781,008	-0,00239
781,188	-0,00233
781,367	-0,00228
781,546	-0,00232
781,726	-0,00223
781,905	-0,00231
782,085	-0,00228
782,264	-0,00218
782,443	-0,00208
782,623	-0,00211
782,802	-0,0022
782,981	-0,00218
783,161	-0,00224
783,34	-0,00227
783,519	-0,00219
783,698	-0,0022
783,878	-0,00213
784,057	-0,00211
784,236	-0,00211
784,415	-0,00209
784,594	-0,00203
784,773	-0,00196
784,952	-0,00195
785,132	-0,002
785,311	-0,00196
785,49	-0,00213
785,669	-0,0022
785,848	-0,00226
786,027	-0,00239
786,206	-0,00234
786,385	-0,00248
786,564	-0,00245
786,743	-0,00251
786,922	-0,00247
787,1	-0,00247
787,279	-0,00264
787,458	-0,0025
787,637	-0,00239
787,816	-0,0024
787,995	-0,00242
788,174	-0,00246
788,352	-0,00238
788,531	-0,00241
788,71	-0,00242
788,889	-0,00253
789,067	-0,00246
789,246	-0,00246
789,425	-0,00248
789,603	-0,00257
789,782	-0,00258
789,961	-0,00255
790,139	-0,0024
790,318	-0,00245
790,496	-0,00243
790,675	-0,00237
790,853	-0,00241
791,032	-0,00249
791,211	-0,00238
791,389	-0,00246
791,568	-0,00225
791,746	-0,0022
791,924	-0,00213
792,103	-0,00235
792,281	-0,00239
792,46	-0,00245
792,638	-0,00251
792,816	-0,00243
792,995	-0,00235
793,173	-0,00236
793,351	-0,00231
793,53	-0,00244
793,708	-0,0025
793,886	-0,00242
794,064	-0,00237
794,243	-0,00217
794,421	-0,00211
794,599	-0,0021
794,777	-0,00221
794,955	-0,00234
795,133	-0,0024
795,312	-0,00251
795,49	-0,00253
795,668	-0,00251
795,846	-0,00261
796,024	-0,00251
796,202	-0,00258
796,38	-0,00274
796,558	-0,00283
796,736	-0,00285
796,914	-0,00273
797,092	-0,00269
797,27	-0,00265
797,448	-0,00271
797,626	-0,00281
797,803	-0,0029
797,981	-0,00303
798,159	-0,00309
798,337	-0,00296
798,515	-0,00286
798,693	-0,00273
798,87	-0,00283
799,048	-0,0029
799,226	-0,00282
799,404	-0,00275
799,581	-0,00272
799,759	-0,00268
799,937	-0,00276
800,114	-0,00286
800,292	-0,00287
800,469	-0,00281
800,647	-0,00298
800,825	-0,00275
801,002	-0,00284
801,18	-0,00292
801,357	-0,00286
801,535	-0,00272
801,712	-0,00265
801,89	-0,00257
802,067	-0,00253
802,245	-0,0026
802,422	-0,00276
802,6	-0,00267
802,777	-0,00278
802,954	-0,00275
803,132	-0,00275
803,309	-0,00289
803,486	-0,00299
803,664	-0,00294
803,841	-0,00284
804,018	-0,00277
804,195	-0,00278
804,373	-0,00278
804,55	-0,00265
804,727	-0,00268
804,904	-0,00255
805,081	-0,00242
805,259	-0,00254
805,436	-0,00268
805,613	-0,00285
805,79	-0,00298
805,967	-0,00294
806,144	-0,00294
806,321	-0,00299
806,498	-0,00307
806,675	-0,00305
806,852	-0,00312
807,029	-0,00321
807,206	-0,0031
807,383	-0,00293
807,56	-0,00275
807,737	-0,00276
807,914	-0,00289
808,091	-0,00288
808,268	-0,0027
808,444	-0,00268
808,621	-0,0027
808,798	-0,00285
808,975	-0,00282
809,152	-0,00295
809,328	-0,00301
809,505	-0,0031
809,682	-0,00311
809,858	-0,00317
810,035	-0,00317
810,212	-0,00332
810,388	-0,00335
810,565	-0,00323
810,742	-0,00311
810,918	-0,0031
811,095	-0,00312
811,271	-0,00309
811,448	-0,00307
811,625	-0,00308
811,801	-0,00298
811,978	-0,003
812,154	-0,00308
812,33	-0,00302
812,507	-0,00295
812,683	-0,00293
812,86	-0,00288
813,036	-0,00271
813,212	-0,00266
813,389	-0,00264
813,565	-0,00269
813,741	-0,00259
813,918	-0,00254
814,094	-0,00249
814,27	-0,00262
814,447	-0,00275
814,623	-0,00279
814,799	-0,00286
814,975	-0,00284
815,151	-0,00291
815,328	-0,00296
815,504	-0,00284
815,68	-0,00303
815,856	-0,00299
816,032	-0,00279
816,208	-0,00277
816,384	-0,00286
816,56	-0,00295
816,736	-0,00298
816,912	-0,00296
817,088	-0,00291
817,264	-0,00291
817,44	-0,00294
817,616	-0,00286
817,792	-0,00298
817,968	-0,00311
818,144	-0,00293
818,32	-0,0029
818,495	-0,00275
818,671	-0,00273
818,847	-0,00297
819,023	-0,00293
819,199	-0,00293
819,374	-0,00286
819,55	-0,00288
819,726	-0,00276
819,902	-0,00275
820,077	-0,00289
820,253	-0,00276
820,429	-0,00291
820,604	-0,00283
820,78	-0,0026
820,956	-0,00283
821,131	-0,00295
821,307	-0,00301
821,482	-0,00302
821,658	-0,00287
821,833	-0,00307
822,009	-0,00325
822,184	-0,00328
822,36	-0,00307
822,535	-0,00304
822,711	-0,00307
822,886	-0,00295
823,061	-0,00287
823,237	-0,00278
823,412	-0,00267
823,587	-0,00288
823,763	-0,00279
823,938	-0,00279
824,113	-0,003
824,289	-0,00317
824,464	-0,00322
824,639	-0,00322
824,814	-0,00338
824,99	-0,00352
825,165	-0,00366
825,34	-0,00372
825,515	-0,0036
825,69	-0,00339
825,865	-0,00322
826,04	-0,00294
826,215	-0,00275
826,39	-0,00263
826,566	-0,00252
826,741	-0,00218
826,916	-0,00201
827,091	-0,00208
827,265	-0,00206
827,44	-0,00215
827,615	-0,00235
827,79	-0,00246
827,965	-0,00255
828,14	-0,00257
828,315	-0,00265
828,49	-0,00273
828,665	-0,00289
828,839	-0,00284
829,014	-0,00261
829,189	-0,00264
829,364	-0,00265
829,538	-0,00242
829,713	-0,00224
829,888	-0,00233
830,063	-0,00236
830,237	-0,00249
830,412	-0,00265
830,587	-0,00256
830,761	-0,00252
830,936	-0,00259
831,11	-0,00261
831,285	-0,00266
831,459	-0,00281
831,634	-0,00292
831,809	-0,00294
831,983	-0,00305
832,157	-0,00306
832,332	-0,00305
832,506	-0,0031
832,681	-0,00316
832,855	-0,0032
833,03	-0,00319
833,204	-0,00318
833,378	-0,00313
833,553	-0,00311
833,727	-0,00303
833,901	-0,003
834,076	-0,00281
834,25	-0,00274
834,424	-0,00268
834,598	-0,00267
834,773	-0,00271
834,947	-0,0025
835,121	-0,00248
835,295	-0,00255
835,469	-0,00269
835,643	-0,00276
835,817	-0,00274
835,991	-0,00303
836,166	-0,0032
836,34	-0,00315
836,514	-0,00314
836,688	-0,00304
836,862	-0,00318
837,036	-0,00318
837,21	-0,00305
837,384	-0,00296
837,557	-0,0029
837,731	-0,0029
837,905	-0,00255
838,079	-0,00247
838,253	-0,00259
838,427	-0,0027
838,601	-0,00289
838,774	-0,00294
838,948	-0,00301
839,122	-0,00301
839,296	-0,00301
839,469	-0,00285
839,643	-0,00299
839,817	-0,0033
839,991	-0,00328
840,164	-0,00321
840,338	-0,00331
840,512	-0,0031
840,685	-0,00293
840,859	-0,00301
841,032	-0,00314
841,206	-0,00316
841,379	-0,00343
841,553	-0,00333
841,726	-0,00314
841,9	-0,00297
842,073	-0,00311
842,247	-0,003
842,42	-0,00314
842,594	-0,0033
842,767	-0,00316
842,94	-0,0031
843,114	-0,00291
843,287	-0,0028
843,46	-0,00295
843,634	-0,00316
843,807	-0,00329
843,98	-0,0032
844,154	-0,0032
844,327	-0,00328
844,5	-0,00319
844,673	-0,00298
844,846	-0,00306
845,02	-0,00317
845,193	-0,00347
845,366	-0,0034
845,539	-0,00336
845,712	-0,00331
845,885	-0,00329
846,058	-0,00326
846,231	-0,00329
846,404	-0,00342
846,577	-0,00372
846,75	-0,0034
846,923	-0,00326
847,096	-0,00303
847,269	-0,00282
847,442	-0,00268
847,615	-0,00257
847,788	-0,00267
847,961	-0,00246
848,133	-0,00229
848,306	-0,00214
848,479	-0,00203
848,652	-0,00238
848,825	-0,00259
848,997	-0,00256
849,17	-0,00283
849,343	-0,00282
849,515	-0,00298
849,688	-0,00299
849,861	-0,00316
850,033	-0,0032
850,206	-0,00327
850,379	-0,00328
850,551	-0,00312
850,724	-0,00298
850,896	-0,00323
851,069	-0,003
851,241	-0,00299
851,414	-0,00291
851,586	-0,00286
851,759	-0,00298
851,931	-0,00312
852,104	-0,00327
852,276	-0,00331
852,449	-0,00343
852,621	-0,00351
852,793	-0,00328
852,966	-0,0034
853,138	-0,00343
853,31	-0,00346
853,483	-0,00338
853,655	-0,00342
853,827	-0,00338
853,999	-0,00326
854,172	-0,00313
854,344	-0,00299
854,516	-0,00295
854,688	-0,00301
854,86	-0,00307
855,032	-0,00317
855,204	-0,00316
855,377	-0,0032
855,549	-0,00306
855,721	-0,0031
855,893	-0,00335
856,065	-0,00361
856,237	-0,00385
856,409	-0,004
856,581	-0,0039
856,753	-0,00375
856,924	-0,00366
857,096	-0,00354
857,268	-0,00349
857,44	-0,00348
857,612	-0,00335
857,784	-0,00329
857,956	-0,00311
858,127	-0,00289
858,299	-0,00286
858,471	-0,00272
858,643	-0,00284
858,814	-0,0028
858,986	-0,00293
859,158	-0,00299
859,33	-0,00298
859,501	-0,00305
859,673	-0,00271
859,844	-0,00268
860,016	-0,00298
860,188	-0,00288
860,359	-0,00286
860,531	-0,00288
860,702	-0,003
860,874	-0,00323
861,045	-0,00321
861,217	-0,0034
861,388	-0,00345
861,56	-0,00373
861,731	-0,00379
861,902	-0,00362
862,074	-0,00366
862,245	-0,0039
862,417	-0,00392
862,588	-0,00385
862,759	-0,00372
862,931	-0,00393
863,102	-0,00382
863,273	-0,0037
863,444	-0,00375
863,616	-0,00366
863,787	-0,00366
863,958	-0,00361
864,129	-0,00345
864,3	-0,00356
864,471	-0,00361
864,642	-0,00334
864,814	-0,00334
864,985	-0,00351
865,156	-0,00371
865,327	-0,00372
865,498	-0,00346
865,669	-0,0036
865,84	-0,00354
866,011	-0,00344
866,182	-0,00345
866,353	-0,00352
866,523	-0,00385
866,694	-0,00355
866,865	-0,00325
867,036	-0,00295
867,207	-0,00273
867,378	-0,0033
867,549	-0,00347
867,719	-0,00373
867,89	-0,00406
868,061	-0,0039
868,232	-0,0041
868,402	-0,00403
868,573	-0,00443
868,744	-0,00442
868,914	-0,00456
869,085	-0,00483
869,256	-0,00461
869,426	-0,00438
869,597	-0,00417
869,767	-0,00398
869,938	-0,00404
870,108	-0,00373
870,279	-0,00345
870,449	-0,00337
870,62	-0,00369
870,79	-0,0039
870,961	-0,00361
871,131	-0,00351
871,302	-0,00316
871,472	-0,00315
871,642	-0,00318
871,813	-0,00322
871,983	-0,0033
872,153	-0,00361
872,324	-0,00346
872,494	-0,00328
872,664	-0,00346
872,835	-0,00324
873,005	-0,00323
873,175	-0,00351
873,345	-0,00364
873,515	-0,00395
873,685	-0,00398
873,856	-0,0039
874,026	-0,00379
874,196	-0,00359
874,366	-0,00358
874,536	-0,00325
874,706	-0,00396
874,876	-0,004
875,046	-0,00433
875,216	-0,0042
875,386	-0,00371
875,556	-0,00346
875,726	-0,00362
875,896	-0,00369
876,066	-0,00402
876,236	-0,00425
876,405	-0,00414
876,575	-0,0039
876,745	-0,00432
876,915	-0,00375
877,085	-0,00368
877,254	-0,00393
877,424	-0,00394
877,594	-0,0037
877,764	-0,00365
877,933	-0,00348
878,103	-0,00361
878,273	-0,00334
878,442	-0,00325
878,612	-0,00308
878,781	-0,00343
878,951	-0,00344
879,121	-0,00354
879,29	-0,00385
879,46	-0,00384
879,629	-0,00363
879,799	-0,00347
879,968	-0,003
880,138	-0,00297
880,307	-0,00282
880,476	-0,00253
880,646	-0,00263
880,815	-0,00294
880,985	-0,00304
881,154	-0,00289
881,323	-0,00319
881,493	-0,00356
881,662	-0,00391
881,831	-0,004
882	-0,00439
882,17	-0,00437
882,339	-0,00462
882,508	-0,0044
882,677	-0,00394
882,846	-0,00376
883,016	-0,00389
883,185	-0,00386
883,354	-0,00359
883,523	-0,00347
883,692	-0,00367
883,861	-0,00344
884,03	-0,00387
884,199	-0,00379
884,368	-0,00351
884,537	-0,00404
884,706	-0,00406
884,875	-0,00407
885,044	-0,00388
885,213	-0,00375
885,382	-0,00383
885,55	-0,00369
885,719	-0,00385
885,888	-0,00352
886,057	-0,00393
886,226	-0,00444
886,395	-0,0039
886,563	-0,00418
886,732	-0,00415
886,901	-0,00422
887,069	-0,0045
887,238	-0,00436
887,407	-0,00451
887,575	-0,00449
887,744	-0,00451
887,913	-0,00423
888,081	-0,00425
888,25	-0,00435
888,418	-0,00421
888,587	-0,00416
888,755	-0,00417
888,924	-0,00399
889,092	-0,00394
889,261	-0,00417
889,429	-0,0042
889,598	-0,00419
889,766	-0,00389
889,935	-0,00367
890,103	-0,00398
890,271	-0,00397
890,44	-0,00393
890,608	-0,00391
890,776	-0,00397
890,944	-0,00417
891,113	-0,00404
891,281	-0,00429
891,449	-0,00461
891,617	-0,00493
891,786	-0,00508
891,954	-0,00508
892,122	-0,0046
892,29	-0,00444
892,458	-0,00439
892,626	-0,00433
892,794	-0,00435
892,962	-0,00408
893,13	-0,00382
893,298	-0,00336
893,466	-0,00292
