Data from Chemiepractica_Absorbance__31__11-45-33-075.txt Node

Date: Mon Dec 09 11:45:33 CET 2024
User: r0948668
Spectrometer: USB4F07138
Trigger mode: 4
Integration Time (sec): 6,000000E-3
Scans to average: 20
Electric dark correction enabled: true
Nonlinearity correction enabled: false
Boxcar width: 5
XAxis mode: Wavelengths
Number of Pixels in Spectrum: 3648
>>>>>Begin Spectral Data<<<<<
176,779	-0
176,999	-0
177,218	-0
177,438	-1,54811
177,658	-0,8385
177,878	-0,53106
178,097	-0,21211
178,317	-0,13053
178,537	-0,03333
178,757	0,17634
178,976	0,02756
179,196	0,55129
179,416	-0
179,635	-0,09715
179,855	0,01587
180,075	0,05688
180,294	-0,01924
180,514	-0,0703
180,734	-0,0637
180,953	-0,05652
181,173	-0,05073
181,392	-0,05668
181,612	-0,0479
181,832	-0,02602
182,051	-0,03528
182,271	-0,04973
182,49	-0,06014
182,71	-0,05474
182,929	-0,03798
183,149	-0,05187
183,368	-0,03313
183,588	-0,02875
183,807	0,00017
184,027	0,00754
184,246	-0,00507
184,466	0,00382
184,685	0,01888
184,905	0,01804
185,124	0,02944
185,344	0,02352
185,563	0,04824
185,782	0,04049
186,002	0,0388
186,221	0,02689
186,44	0,01519
186,66	0,02132
186,879	0,03104
187,099	0,02052
187,318	0,01681
187,537	-0,00659
187,756	-0,0036
187,976	-0,03039
188,195	-0,04145
188,414	-0,03724
188,634	-0,03135
188,853	-0,02651
189,072	-0,01379
189,291	-0,02575
189,511	-0,01643
189,73	-0,01233
189,949	-0,0007
190,168	-0,00362
190,387	0,01009
190,607	0,01131
190,826	-0,00263
191,045	-0,01186
191,264	-0,01205
191,483	-0,04083
191,702	-0,03741
191,921	-0,03403
192,141	-0,03072
192,36	-0,02879
192,579	-0,02583
192,798	-0,02503
193,017	-0,02253
193,236	0,00005
193,455	0,00595
193,674	0,00193
193,893	0,02074
194,112	0,02575
194,331	0,01849
194,55	0,01351
194,769	0,00472
194,988	-0,00551
195,207	0,0022
195,426	-0,0051
195,645	-0,01353
195,864	-0,01668
196,083	-0,01418
196,302	-0,01712
196,521	-0,00898
196,739	-0,01387
196,958	-0,00866
197,177	0,0025
197,396	0,01715
197,615	0,01503
197,834	0,00841
198,053	-0,00149
198,271	-0,00498
198,49	-0,00765
198,709	-0,00657
198,928	-0,0129
199,147	-0,01028
199,365	-0,00559
199,584	-0,00901
199,803	-0,03167
200,022	-0,03114
200,24	-0,02529
200,459	-0,02395
200,678	-0,01238
200,897	-0,00899
201,115	-0,01285
201,334	-0,0139
201,553	-0,01852
201,771	-0,02711
201,99	-0,03276
202,209	-0,0082
202,427	-0,00919
202,646	0,00044
202,864	0,00281
203,083	0,00374
203,302	0,01605
203,52	0,02741
203,739	0,02923
203,957	0,04109
204,176	0,04179
204,394	0,05519
204,613	0,06012
204,831	0,06611
205,05	0,06904
205,268	0,07859
205,487	0,07045
205,705	0,06622
205,924	0,06173
206,142	0,06207
206,361	0,05284
206,579	0,05755
206,798	0,04997
207,016	0,0331
207,234	0,0242
207,453	0,01805
207,671	0,02986
207,89	0,02908
208,108	0,01953
208,326	0,0126
208,545	0,00723
208,763	0,00885
208,981	-0,00129
209,2	-0,01045
209,418	-0,00006
209,636	-0,01129
209,855	-0,00725
210,073	-0,03209
210,291	-0,0367
210,509	-0,04032
210,728	-0,0433
210,946	-0,03268
211,164	-0,03659
211,382	-0,02798
211,6	-0,0136
211,819	-0,02134
212,037	-0,00963
212,255	-0,01647
212,473	-0,00592
212,691	0,0081
212,909	0,02449
213,128	0,02139
213,346	0,01759
213,564	0,02371
213,782	0,02643
214	0,02221
214,218	0,02536
214,436	0,03208
214,654	0,02332
214,872	0,00525
215,09	-0,01174
215,308	-0,0149
215,526	-0,00494
215,744	-0,01105
215,962	-0,01211
216,18	-0,01861
216,398	-0,01223
216,616	-0,01746
216,834	-0,02394
217,052	-0,01469
217,27	-0,01782
217,488	-0,00637
217,706	-0,00258
217,924	-0,00277
218,142	0,00301
218,36	0,00934
218,578	0,0221
218,795	0,00607
219,013	0,00753
219,231	0,00454
219,449	0,01092
219,667	0,02539
219,885	0,0257
220,102	0,02568
220,32	0,02277
220,538	0,02159
220,756	0,01032
220,973	-0,00085
221,191	0,00815
221,409	0,01183
221,627	0,01035
221,844	0,00338
222,062	0,0075
222,28	0,01196
222,497	-0,00683
222,715	-0,01096
222,933	-0,01886
223,15	-0,0126
223,368	-0,00231
223,586	0,00312
223,803	-0,00214
224,021	0,00016
224,239	0,00712
224,456	0,0041
224,674	-0,00354
224,891	0,00884
225,109	0,01066
225,326	0,00756
225,544	0,0042
225,762	-0,01159
225,979	-0,01243
226,197	-0,00424
226,414	0,00267
226,632	-0,00865
226,849	-0,00849
227,066	-0,00684
227,284	-0,00458
227,501	0,00122
227,719	0,01677
227,936	0,01877
228,154	0,0276
228,371	0,02478
228,588	0,01886
228,806	0,01824
229,023	0,0305
229,241	0,03376
229,458	0,02536
229,675	0,01789
229,893	0,00908
230,11	0,00613
230,327	-0,00228
230,545	-0,00076
230,762	-0,00222
230,979	0,00417
231,196	0,00173
231,414	-0,01039
231,631	-0,0257
231,848	-0,02144
232,065	-0,02473
232,283	-0,02786
232,5	-0,02642
232,717	-0,02217
232,934	-0,02162
233,151	-0,02045
233,368	-0,02936
233,586	-0,03273
233,803	-0,03258
234,02	-0,01653
234,237	-0,01898
234,454	-0,00901
234,671	0,01356
234,888	0,00433
235,105	0,00234
235,322	0,0041
235,54	-0,00762
235,757	0,00605
235,974	0,00226
236,191	0,0188
236,408	0,01354
236,625	0,01081
236,842	0,00111
237,059	-0,00892
237,276	-0,01883
237,493	-0,01152
237,71	-0,01104
237,926	-0,00453
238,143	-0,01377
238,36	-0,00707
238,577	-0,01839
238,794	-0,02292
239,011	-0,00861
239,228	0,00304
239,445	0,0048
239,662	0,02681
239,878	0,0232
240,095	0,01832
240,312	0,02461
240,529	0,03096
240,746	0,03429
240,963	0,03666
241,179	0,04421
241,396	0,04001
241,613	0,03007
241,83	0,02793
242,046	0,01739
242,263	0,02374
242,48	0,01672
242,697	0,01795
242,913	0,01841
243,13	0,00631
243,347	0,01113
243,563	0,01292
243,78	0,00905
243,997	0,01747
244,213	0,02167
244,43	0,03244
244,646	0,0359
244,863	0,04997
245,08	0,04374
245,296	0,03472
245,513	0,03539
245,729	0,03467
245,946	0,03685
246,162	0,03469
246,379	0,03547
246,595	0,02495
246,812	0,01332
247,028	0,01268
247,245	0,00959
247,461	0,00867
247,678	0,0162
247,894	0,02977
248,111	0,0246
248,327	0,01163
248,544	0,0135
248,76	0,01429
248,976	0,0309
249,193	0,03012
249,409	0,02577
249,626	0,02174
249,842	0,02794
250,058	0,02267
250,275	0,02606
250,491	0,01452
250,707	0,02161
250,924	0,01415
251,14	0,00739
251,356	0,00464
251,572	0,00106
251,789	0,00572
252,005	0,00666
252,221	0,00796
252,437	0,01241
252,654	-0,00005
252,87	0,00168
253,086	0,01065
253,302	0,01766
253,518	0,01407
253,735	0,00917
253,951	0,02488
254,167	0,01171
254,383	-0,00083
254,599	-0,00584
254,815	-0,00447
255,031	-0,01324
255,247	-0,01504
255,463	-0,02582
255,68	-0,01444
255,896	-0,00864
256,112	-0,00804
256,328	-0,0226
256,544	-0,0134
256,76	-0,00142
256,976	-0,00294
257,192	-0,00195
257,408	0,01171
257,624	0,02397
257,84	0,02884
258,056	0,01832
258,272	0,01798
258,487	0,00837
258,703	0,01352
258,919	0,01894
259,135	0,02506
259,351	0,02854
259,567	0,03032
259,783	0,0286
259,999	0,03294
260,215	0,03745
260,43	0,03108
260,646	0,03193
260,862	0,03589
261,078	0,03719
261,294	0,01714
261,509	0,01266
261,725	0,01429
261,941	0,00625
262,157	0,00504
262,372	0,0006
262,588	-0,01175
262,804	-0,0093
263,019	-0,01165
263,235	-0,0113
263,451	-0,00473
263,667	0,01333
263,882	0,02147
264,098	0,03168
264,313	0,0318
264,529	0,0244
264,745	0,02797
264,96	0,02948
265,176	0,0353
265,391	0,02862
265,607	0,04267
265,823	0,03319
266,038	0,0227
266,254	0,01414
266,469	0,00643
266,685	-0,00338
266,9	0,00586
267,116	0,00849
267,331	0,02252
267,547	0,02253
267,762	0,02748
267,978	0,01742
268,193	0,02525
268,408	0,03425
268,624	0,03228
268,839	0,02858
269,055	0,03772
269,27	0,03414
269,485	0,03024
269,701	0,02543
269,916	0,01323
270,132	0,02572
270,347	0,02809
270,562	0,03225
270,777	0,03087
270,993	0,03299
271,208	0,03684
271,423	0,04558
271,639	0,04948
271,854	0,0342
272,069	0,0225
272,284	0,03468
272,5	0,02671
272,715	0,01821
272,93	-0,00043
273,145	-0,01027
273,36	-0,01448
273,576	-0,01235
273,791	-0,01445
274,006	-0,02138
274,221	-0,01009
274,436	-0,00497
274,651	-0,0155
274,866	-0,01469
275,081	-0,00528
275,296	-0,00222
275,512	0,00385
275,727	0,00942
275,942	0,00229
276,157	-0,00724
276,372	-0,00044
276,587	0,00406
276,802	0,01252
277,017	0,02446
277,232	0,02762
277,447	0,03153
277,662	0,03485
277,877	0,03022
278,092	0,03251
278,306	0,02975
278,521	0,03494
278,736	0,03757
278,951	0,0355
279,166	0,02441
279,381	0,01814
279,596	0,01469
279,811	0,00227
280,025	-0,00859
280,24	-0,00809
280,455	-0,00736
280,67	-0,00507
280,885	-0,00433
281,099	-0,01392
281,314	-0,01675
281,529	-0,01843
281,744	-0,00696
281,959	-0,0088
282,173	-0,00076
282,388	0,02266
282,603	0,0184
282,817	0,0157
283,032	0,01119
283,247	0,0059
283,461	0,02179
283,676	0,0157
283,891	0,01444
284,105	0,01082
284,32	0,02005
284,535	0,0194
284,749	0,02054
284,964	0,04106
285,178	0,04822
285,393	0,05947
285,607	0,05924
285,822	0,05262
286,036	0,06447
286,251	0,06698
286,465	0,06719
286,68	0,06413
286,894	0,05809
287,109	0,05011
287,323	0,03138
287,538	0,02867
287,752	0,02311
287,967	0,02611
288,181	0,02288
288,396	0,02864
288,61	0,03455
288,824	0,03696
289,039	0,03778
289,253	0,03942
289,467	0,03958
289,682	0,03994
289,896	0,03595
290,11	0,03899
290,325	0,04355
290,539	0,03595
290,753	0,01957
290,968	0,01507
291,182	-0,00057
291,396	-0,00282
291,61	-0,00297
291,825	-0,00184
292,039	0,00442
292,253	0,00626
292,467	0,00434
292,681	-0,0045
292,896	0,00112
293,11	0,00076
293,324	0,00975
293,538	0,02321
293,752	0,02499
293,966	0,0312
294,18	0,0242
294,394	0,01646
294,608	0,01843
294,823	0,01227
295,037	0,02285
295,251	0,02223
295,465	0,03247
295,679	0,02116
295,893	0,01596
296,107	0,01265
296,321	0,01852
296,535	0,0166
296,749	0,00999
296,963	-0,00317
297,177	-0,00131
297,391	-0,00648
297,604	-0,00932
297,818	-0,01301
298,032	-0,01754
298,246	-0,02225
298,46	-0,01693
298,674	-0,02549
298,888	-0,0194
299,102	-0,00325
299,315	0,01013
299,529	0,02214
299,743	0,02268
299,957	0,01753
300,171	0,0148
300,385	0,02785
300,598	0,02823
300,812	0,02268
301,026	0,02271
301,24	0,0226
301,453	0,01495
301,667	0,01234
301,881	0,00905
302,094	0,00334
302,308	0,00614
302,522	0,01705
302,735	0,01195
302,949	0,01358
303,163	0,01014
303,376	0,01102
303,59	0,02245
303,803	0,01945
304,017	0,0235
304,231	0,01782
304,444	0,0246
304,658	0,03006
304,871	0,0277
305,085	0,02968
305,298	0,02577
305,512	0,02494
305,725	0,02643
305,939	0,02005
306,152	0,02316
306,366	0,01059
306,579	0,01935
306,793	0,02195
307,006	0,02556
307,22	0,02368
307,433	0,02072
307,646	0,02854
307,86	0,03389
308,073	0,03685
308,286	0,02196
308,5	0,01909
308,713	0,01684
308,926	0,01426
309,14	0,00957
309,353	0,00322
309,566	-0,00008
309,78	0,0011
309,993	-0,00204
310,206	-0,00037
310,419	-0,00587
310,633	-0,00093
310,846	0,0106
311,059	0,0154
311,272	0,00447
311,486	0,00999
311,699	0,01807
311,912	0,02226
312,125	0,02371
312,338	0,02163
312,551	0,02106
312,764	0,0193
312,978	0,03331
313,191	0,02267
313,404	0,0212
313,617	0,02299
313,83	0,02172
314,043	0,01951
314,256	0,01424
314,469	0,00964
314,682	0,00947
314,895	0,01169
315,108	0,01129
315,321	-0,00127
315,534	0,00777
315,747	0,00775
315,96	0,01775
316,173	0,01048
316,386	0,00305
316,599	0,00611
316,812	0,01766
317,025	0,02713
317,237	0,02579
317,45	0,02005
317,663	0,02065
317,876	0,01632
318,089	0,01862
318,302	0,00519
318,515	0,00084
318,727	0,00192
318,94	0,00059
319,153	-0,00677
319,366	-0,01483
319,578	-0,02218
319,791	-0,0071
320,004	-0,0094
320,217	-0,00834
320,429	-0,00587
320,642	0,00176
320,855	0,00605
321,067	-0,00408
321,28	-0,00341
321,493	-0,00113
321,705	-0,00605
321,918	0,00308
322,131	-0,00863
322,343	-0,0073
322,556	-0,01068
322,768	-0,01162
322,981	-0,01846
323,194	-0,0199
323,406	-0,01042
323,619	-0,01781
323,831	-0,01872
324,044	-0,00827
324,256	-0,00811
324,469	-0,01339
324,681	-0,01226
324,894	-0,01319
325,106	-0,01315
325,319	-0,00981
325,531	-0,00137
325,743	-0,00707
325,956	-0,00275
326,168	-0,00446
326,381	-0,00553
326,593	-0,0128
326,805	-0,00047
327,018	-0,00048
327,23	-0,00015
327,442	0,00868
327,655	0,00378
327,867	0,00645
328,079	0,00703
328,292	0,01567
328,504	0,01787
328,716	0,01242
328,928	0,01919
329,141	0,024
329,353	0,02512
329,565	0,02926
329,777	0,01991
329,99	0,0276
330,202	0,03005
330,414	0,03224
330,626	0,02893
330,838	0,02722
331,05	0,0261
331,263	0,02365
331,475	0,02163
331,687	0,02064
331,899	0,02127
332,111	0,0227
332,323	0,02352
332,535	0,01975
332,747	0,02409
332,959	0,02351
333,171	0,02572
333,383	0,03088
333,595	0,03429
333,807	0,03502
334,019	0,02868
334,231	0,02564
334,443	0,01621
334,655	0,01199
334,867	0,01109
335,079	0,01144
335,291	0,00508
335,503	0,00826
335,714	0,00706
335,926	0,00691
336,138	-0,00022
336,35	0,00241
336,562	0,00357
336,774	0,00687
336,986	0,0079
337,197	0,00301
337,409	0,0018
337,621	0,00035
337,833	-0,00549
338,044	-0,00004
338,256	-0,00334
338,468	-0,00175
338,68	-0,00051
338,891	0,00193
339,103	0,00464
339,315	-0,00034
339,526	-0,00099
339,738	-0,01
339,95	-0,0101
340,161	-0,00038
340,373	-0,01171
340,585	-0,02178
340,796	-0,02448
341,008	-0,02021
341,219	-0,01782
341,431	-0,0212
341,642	-0,01557
341,854	-0,00453
342,065	0,0158
342,277	0,01285
342,489	0,00616
342,7	0,0191
342,912	0,02822
343,123	0,02939
343,334	0,03048
343,546	0,01633
343,757	0,02378
343,969	0,02527
344,18	0,01203
344,392	0,00085
344,603	0,00955
344,814	0,01315
345,026	0,0093
345,237	0,00478
345,448	0,00502
345,66	-0,00397
345,871	0,00584
346,082	0,00495
346,294	0,00359
346,505	0,00883
346,716	0,01033
346,927	0,01075
347,139	0,00788
347,35	0,00725
347,561	0,01164
347,772	0,00585
347,984	0,01623
348,195	0,021
348,406	0,01069
348,617	0,01404
348,828	0,02177
349,039	0,01858
349,251	0,01248
349,462	0,01226
349,673	0,004
349,884	0,00403
350,095	0,00877
350,306	0,00589
350,517	0,00987
350,728	0,02342
350,939	0,02371
351,15	0,01997
351,361	0,02559
351,572	0,037
351,783	0,03699
351,994	0,04711
352,205	0,04919
352,416	0,05126
352,627	0,0485
352,838	0,03641
353,049	0,03508
353,26	0,03295
353,471	0,03001
353,682	0,02699
353,893	0,0232
354,103	0,02468
354,314	0,0141
354,525	0,01612
354,736	0,01634
354,947	0,02225
355,157	0,02811
355,368	0,02312
355,579	0,01818
355,79	0,02121
356,001	0,0212
356,211	0,02415
356,422	0,01186
356,633	0,0189
356,843	0,00927
357,054	0,00781
357,265	0,01002
357,476	0,00696
357,686	0,00991
357,897	0,01978
358,107	0,01015
358,318	0,01098
358,529	0,00495
358,739	0,02272
358,95	0,02442
359,16	0,02882
359,371	0,02326
359,582	0,01181
359,792	0,01633
360,003	0,01689
360,213	0,00879
360,424	0,01607
360,634	0,01351
360,845	0,01333
361,055	0,00666
361,266	0,00784
361,476	0,01494
361,686	0,02245
361,897	0,02608
362,107	0,02604
362,318	0,0239
362,528	0,02538
362,738	0,02162
362,949	0,02275
363,159	0,02626
363,369	0,0226
363,58	0,01821
363,79	0,01199
364	0,00858
364,211	0,00578
364,421	0,0034
364,631	0,01145
364,842	0,01321
365,052	0,01232
365,262	0,01132
365,472	0,014
365,682	0,01398
365,893	0,014
366,103	0,01838
366,313	0,02231
366,523	0,03222
366,733	0,03319
366,943	0,02634
367,154	0,02557
367,364	0,03265
367,574	0,03767
367,784	0,044
367,994	0,05502
368,204	0,05885
368,414	0,05423
368,624	0,05519
368,834	0,05368
369,044	0,05439
369,254	0,05256
369,464	0,05387
369,674	0,05348
369,884	0,04866
370,094	0,03748
370,304	0,02763
370,514	0,02493
370,724	0,02865
370,934	0,02353
371,144	0,01511
371,353	0,01413
371,563	0,01739
371,773	0,01523
371,983	0,01314
372,193	0,01622
372,403	0,01938
372,612	0,01734
372,822	0,01571
373,032	0,01499
373,242	0,01682
373,452	0,02185
373,661	0,02144
373,871	0,02004
374,081	0,02427
374,29	0,02565
374,5	0,02036
374,71	0,01261
374,92	0,01696
375,129	0,01667
375,339	0,01412
375,549	0,01237
375,758	0,0126
375,968	0,01067
376,177	0,0089
376,387	0,00447
376,597	0,0029
376,806	0,01024
377,016	0,01378
377,225	0,01509
377,435	0,01842
377,644	0,01671
377,854	0,02082
378,063	0,02099
378,273	0,02437
378,482	0,02671
378,692	0,03017
378,901	0,02497
379,111	0,02271
379,32	0,02524
379,529	0,02657
379,739	0,02508
379,948	0,02272
380,158	0,02207
380,367	0,02608
380,576	0,02388
380,786	0,01879
380,995	0,01494
381,204	0,02314
381,414	0,02057
381,623	0,01887
381,832	0,01868
382,041	0,01859
382,251	0,02394
382,46	0,02135
382,669	0,01315
382,878	0,01297
383,088	0,01743
383,297	0,02035
383,506	0,01759
383,715	0,02026
383,924	0,02037
384,133	0,01571
384,342	0,01865
384,552	0,01682
384,761	0,02284
384,97	0,02576
385,179	0,02598
385,388	0,02501
385,597	0,02069
385,806	0,02158
386,015	0,0187
386,224	0,01796
386,433	0,02008
386,642	0,01496
386,851	0,01708
387,06	0,01284
387,269	0,01245
387,478	0,01249
387,687	0,01347
387,896	0,01708
388,105	0,01152
388,314	0,00908
388,523	0,00856
388,731	0,00951
388,94	0,01142
389,149	0,01296
389,358	0,0154
389,567	0,01814
389,776	0,01866
389,984	0,0166
390,193	0,01496
390,402	0,01601
390,611	0,02106
390,819	0,02201
391,028	0,02113
391,237	0,0217
391,446	0,01662
391,654	0,01538
391,863	0,01388
392,072	0,0125
392,28	0,015
392,489	0,01649
392,698	0,01607
392,906	0,01387
393,115	0,01465
393,324	0,01516
393,532	0,01303
393,741	0,01236
393,949	0,00724
394,158	0,00622
394,366	0,00787
394,575	0,00438
394,783	0,00324
394,992	0,00529
395,2	0,00179
395,409	0,00103
395,617	-0,00114
395,826	0,00055
396,034	-0,00146
396,243	0,00186
396,451	0,00231
396,66	0,00272
396,868	0,00326
397,076	0,00202
397,285	-0,00049
397,493	0,00088
397,701	0,00128
397,91	0,00087
398,118	0,00171
398,326	0,00643
398,535	0,00423
398,743	0,00579
398,951	0,00497
399,159	0,00791
399,368	0,01172
399,576	0,01293
399,784	0,01468
399,992	0,01347
400,201	0,01459
400,409	0,01018
400,617	0,01088
400,825	0,01561
401,033	0,01388
401,241	0,01539
401,45	0,016
401,658	0,01456
401,866	0,0171
402,074	0,01637
402,282	0,01677
402,49	0,01529
402,698	0,01961
402,906	0,01817
403,114	0,01707
403,322	0,01825
403,53	0,01693
403,738	0,01537
403,946	0,01505
404,154	0,01349
404,362	0,01235
404,57	0,01264
404,778	0,01322
404,986	0,01275
405,194	0,0118
405,402	0,01327
405,609	0,01169
405,817	0,00937
406,025	0,00997
406,233	0,01044
406,441	0,00922
406,649	0,00906
406,856	0,00882
407,064	0,01026
407,272	0,00872
407,48	0,00987
407,687	0,00793
407,895	0,0102
408,103	0,01067
408,311	0,01121
408,518	0,00893
408,726	0,01149
408,934	0,01296
409,141	0,01364
409,349	0,01092
409,557	0,01238
409,764	0,01105
409,972	0,01112
410,18	0,00819
410,387	0,01034
410,595	0,00872
410,802	0,0092
411,01	0,00782
411,217	0,00636
411,425	0,00664
411,632	0,00825
411,84	0,00725
412,047	0,00602
412,255	0,00558
412,462	0,00831
412,67	0,00687
412,877	0,00757
413,085	0,00731
413,292	0,00767
413,499	0,01058
413,707	0,01078
413,914	0,01029
414,122	0,00875
414,329	0,01103
414,536	0,01081
414,744	0,00959
414,951	0,00966
415,158	0,00886
415,366	0,00989
415,573	0,00921
415,78	0,00741
415,987	0,00673
416,195	0,00875
416,402	0,01039
416,609	0,01101
416,816	0,01114
417,023	0,01109
417,231	0,01214
417,438	0,01211
417,645	0,01144
417,852	0,01082
418,059	0,01104
418,266	0,00996
418,473	0,00891
418,68	0,01046
418,888	0,00871
419,095	0,00888
419,302	0,0095
419,509	0,00735
419,716	0,00796
419,923	0,00809
420,13	0,00967
420,337	0,01117
420,544	0,01153
420,751	0,01004
420,958	0,00974
421,165	0,01079
421,371	0,01034
421,578	0,00949
421,785	0,01044
421,992	0,01041
422,199	0,01165
422,406	0,01124
422,613	0,00918
422,82	0,01031
423,026	0,01128
423,233	0,00931
423,44	0,00702
423,647	0,00702
423,854	0,00695
424,06	0,00675
424,267	0,00612
424,474	0,00508
424,681	0,00487
424,887	0,00597
425,094	0,00603
425,301	0,00713
425,507	0,00753
425,714	0,00878
425,921	0,00851
426,127	0,00792
426,334	0,00819
426,54	0,00879
426,747	0,01034
426,954	0,00958
427,16	0,0087
427,367	0,00748
427,573	0,00592
427,78	0,00562
427,986	0,00646
428,193	0,00633
428,399	0,00828
428,606	0,00843
428,812	0,00883
429,019	0,00732
429,225	0,00862
429,432	0,01027
429,638	0,01072
429,845	0,01012
430,051	0,01038
430,257	0,00934
430,464	0,00979
430,67	0,00896
430,876	0,00814
431,083	0,00859
431,289	0,01043
431,495	0,01004
431,702	0,0092
431,908	0,00745
432,114	0,00714
432,32	0,00792
432,527	0,00781
432,733	0,00698
432,939	0,00654
433,145	0,00716
433,351	0,00647
433,558	0,00648
433,764	0,00659
433,97	0,00516
434,176	0,00701
434,382	0,00829
434,588	0,00808
434,794	0,00824
435,001	0,0092
435,207	0,00961
435,413	0,00921
435,619	0,00967
435,825	0,00833
436,031	0,00878
436,237	0,01011
436,443	0,01067
436,649	0,01069
436,855	0,01136
437,061	0,0125
437,267	0,01175
437,473	0,0119
437,679	0,01346
437,884	0,01332
438,09	0,01336
438,296	0,01168
438,502	0,01143
438,708	0,01095
438,914	0,0111
439,12	0,01117
439,325	0,01068
439,531	0,01147
439,737	0,01036
439,943	0,00969
440,149	0,00932
440,354	0,00977
440,56	0,01079
440,766	0,01039
440,972	0,01049
441,177	0,01027
441,383	0,0097
441,589	0,0104
441,794	0,01038
442	0,01101
442,206	0,01132
442,411	0,01181
442,617	0,01146
442,822	0,01255
443,028	0,0122
443,234	0,01271
443,439	0,01326
443,645	0,01384
443,85	0,0135
444,056	0,01389
444,261	0,01466
444,467	0,01486
444,672	0,0142
444,878	0,0147
445,083	0,01393
445,289	0,01474
445,494	0,01402
445,699	0,01402
445,905	0,01403
446,11	0,0148
446,316	0,01503
446,521	0,01486
446,726	0,01448
446,932	0,0149
447,137	0,01472
447,342	0,01474
447,548	0,01429
447,753	0,01442
447,958	0,0145
448,164	0,01374
448,369	0,01309
448,574	0,0118
448,779	0,01157
448,984	0,01119
449,19	0,01179
449,395	0,01176
449,6	0,01181
449,805	0,01266
450,01	0,01282
450,215	0,01215
450,421	0,01346
450,626	0,01325
450,831	0,01356
451,036	0,01338
451,241	0,0145
451,446	0,01392
451,651	0,01435
451,856	0,01504
452,061	0,01533
452,266	0,01507
452,471	0,01613
452,676	0,01551
452,881	0,01622
453,086	0,01706
453,291	0,0176
453,496	0,01684
453,701	0,0176
453,906	0,01731
454,111	0,0165
454,316	0,01685
454,52	0,01761
454,725	0,01686
454,93	0,01733
455,135	0,01712
455,34	0,01618
455,545	0,01613
455,749	0,01645
455,954	0,01526
456,159	0,01548
456,364	0,01669
456,568	0,0161
456,773	0,01619
456,978	0,01783
457,182	0,01818
457,387	0,01898
457,592	0,02029
457,796	0,02041
458,001	0,02135
458,206	0,02278
458,41	0,02334
458,615	0,02245
458,82	0,02255
459,024	0,02276
459,229	0,02206
459,433	0,02187
459,638	0,02168
459,842	0,02192
460,047	0,02208
460,251	0,02188
460,456	0,02167
460,66	0,02191
460,865	0,02272
461,069	0,02297
461,274	0,02294
461,478	0,02383
461,682	0,02362
461,887	0,02348
462,091	0,02335
462,296	0,0239
462,5	0,02402
462,704	0,02429
462,909	0,02348
463,113	0,02368
463,317	0,02371
463,522	0,02402
463,726	0,0237
463,93	0,02391
464,134	0,02446
464,339	0,0243
464,543	0,02443
464,747	0,02439
464,951	0,02476
465,155	0,02579
465,36	0,02644
465,564	0,02701
465,768	0,02697
465,972	0,02773
466,176	0,02792
466,38	0,02804
466,584	0,02905
466,788	0,02907
466,993	0,02935
467,197	0,02936
467,401	0,02958
467,605	0,02921
467,809	0,02951
468,013	0,0303
468,217	0,02994
468,421	0,03043
468,625	0,03047
468,829	0,03024
469,033	0,03026
469,236	0,0308
469,44	0,03019
469,644	0,03022
469,848	0,03053
470,052	0,03125
470,256	0,03067
470,46	0,03088
470,664	0,03103
470,867	0,03135
471,071	0,03121
471,275	0,03172
471,479	0,03195
471,683	0,03271
471,886	0,03304
472,09	0,03316
472,294	0,03246
472,497	0,03303
472,701	0,03315
472,905	0,03348
473,109	0,03378
473,312	0,03434
473,516	0,03514
473,719	0,03481
473,923	0,03487
474,127	0,03499
474,33	0,03517
474,534	0,03588
474,737	0,03627
474,941	0,03664
475,145	0,03616
475,348	0,03634
475,552	0,03642
475,755	0,03625
475,959	0,03698
476,162	0,03775
476,366	0,03834
476,569	0,03848
476,772	0,03881
476,976	0,03904
477,179	0,03967
477,383	0,04056
477,586	0,04088
477,789	0,04147
477,993	0,04173
478,196	0,04206
478,399	0,04235
478,603	0,04258
478,806	0,04327
479,009	0,0431
479,213	0,04279
479,416	0,04264
479,619	0,04329
479,822	0,04387
480,026	0,04438
480,229	0,04431
480,432	0,04459
480,635	0,0449
480,838	0,04526
481,041	0,04492
481,245	0,04572
481,448	0,04622
481,651	0,04666
481,854	0,04676
482,057	0,0466
482,26	0,04656
482,463	0,04709
482,666	0,0475
482,869	0,04776
483,072	0,048
483,275	0,04882
483,478	0,04866
483,681	0,04958
483,884	0,04984
484,087	0,05014
484,29	0,05088
484,493	0,05138
484,696	0,05195
484,899	0,05224
485,102	0,05268
485,305	0,05304
485,508	0,05359
485,71	0,0542
485,913	0,05449
486,116	0,05509
486,319	0,05553
486,522	0,05557
486,725	0,05587
486,927	0,05636
487,13	0,05676
487,333	0,05722
487,536	0,0576
487,738	0,05803
487,941	0,05838
488,144	0,05875
488,346	0,05894
488,549	0,0593
488,752	0,06001
488,954	0,06074
489,157	0,06088
489,359	0,06118
489,562	0,0615
489,765	0,06203
489,967	0,06227
490,17	0,06301
490,372	0,06354
490,575	0,06406
490,777	0,06471
490,98	0,06498
491,182	0,0652
491,385	0,06573
491,587	0,06639
491,79	0,06708
491,992	0,06735
492,195	0,06779
492,397	0,06785
492,599	0,06818
492,802	0,0685
493,004	0,06894
493,207	0,06926
493,409	0,06984
493,611	0,07045
493,814	0,0708
494,016	0,07104
494,218	0,07132
494,42	0,07168
494,623	0,07255
494,825	0,07322
495,027	0,07365
495,229	0,07402
495,432	0,07462
495,634	0,07517
495,836	0,07562
496,038	0,07621
496,24	0,07663
496,442	0,07734
496,645	0,07817
496,847	0,07854
497,049	0,07871
497,251	0,07938
497,453	0,08003
497,655	0,08054
497,857	0,08103
498,059	0,08166
498,261	0,08184
498,463	0,0827
498,665	0,08317
498,867	0,08371
499,069	0,08418
499,271	0,08498
499,473	0,08565
499,675	0,08592
499,877	0,0867
500,079	0,08708
500,281	0,0873
500,482	0,08823
500,684	0,08862
500,886	0,08932
501,088	0,08972
501,29	0,09048
501,492	0,09088
501,693	0,09138
501,895	0,09198
502,097	0,0922
502,299	0,09267
502,5	0,09332
502,702	0,09385
502,904	0,09442
503,106	0,09518
503,307	0,09584
503,509	0,09629
503,711	0,09696
503,912	0,09766
504,114	0,09826
504,315	0,09904
504,517	0,10003
504,719	0,10081
504,92	0,10145
505,122	0,10206
505,323	0,10248
505,525	0,10305
505,726	0,10383
505,928	0,10462
506,129	0,10515
506,331	0,10605
506,532	0,10681
506,734	0,10734
506,935	0,10804
507,137	0,10842
507,338	0,10897
507,539	0,10956
507,741	0,11038
507,942	0,11084
508,143	0,11145
508,345	0,11226
508,546	0,11284
508,747	0,11371
508,949	0,11454
509,15	0,11488
509,351	0,1155
509,553	0,11618
509,754	0,11687
509,955	0,11735
510,156	0,11825
510,357	0,1188
510,559	0,11939
510,76	0,11999
510,961	0,12059
511,162	0,12116
511,363	0,12209
511,564	0,1229
511,766	0,12389
511,967	0,12493
512,168	0,12597
512,369	0,12679
512,57	0,12754
512,771	0,1285
512,972	0,1294
513,173	0,1302
513,374	0,13098
513,575	0,13192
513,776	0,13291
513,977	0,13353
514,178	0,13427
514,379	0,13485
514,58	0,13554
514,781	0,13669
514,981	0,13756
515,182	0,13816
515,383	0,139
515,584	0,1399
515,785	0,14065
515,986	0,14166
516,187	0,14274
516,387	0,14351
516,588	0,14447
516,789	0,14525
516,99	0,14598
517,19	0,14666
517,391	0,14776
517,592	0,14863
517,793	0,14924
517,993	0,15009
518,194	0,15065
518,395	0,15135
518,595	0,15195
518,796	0,15271
518,996	0,1535
519,197	0,1541
519,398	0,15485
519,598	0,15577
519,799	0,15638
519,999	0,15732
520,2	0,15825
520,4	0,15899
520,601	0,15986
520,801	0,16093
521,002	0,16177
521,202	0,16276
521,403	0,16367
521,603	0,16452
521,804	0,16513
522,004	0,16598
522,204	0,16679
522,405	0,16744
522,605	0,16841
522,806	0,16929
523,006	0,16985
523,206	0,17067
523,407	0,17155
523,607	0,17254
523,807	0,1732
524,007	0,17402
524,208	0,17503
524,408	0,17564
524,608	0,17648
524,808	0,17722
525,009	0,178
525,209	0,17907
525,409	0,17982
525,609	0,18053
525,809	0,18139
526,009	0,18237
526,209	0,18316
526,41	0,18397
526,61	0,18511
526,81	0,18592
527,01	0,18676
527,21	0,18753
527,41	0,18825
527,61	0,18908
527,81	0,18991
528,01	0,19051
528,21	0,19126
528,41	0,19205
528,61	0,19262
528,81	0,19326
529,01	0,19408
529,21	0,19497
529,41	0,19551
529,609	0,19632
529,809	0,19701
530,009	0,19773
530,209	0,19848
530,409	0,19913
530,609	0,19994
530,808	0,20072
531,008	0,20151
531,208	0,20225
531,408	0,20294
531,608	0,20377
531,807	0,20435
532,007	0,20517
532,207	0,20587
532,406	0,20655
532,606	0,20759
532,806	0,20835
533,005	0,20918
533,205	0,20973
533,405	0,21033
533,604	0,21097
533,804	0,21177
534,003	0,21254
534,203	0,21303
534,403	0,21348
534,602	0,21403
534,802	0,21442
535,001	0,21504
535,201	0,21573
535,4	0,21644
535,6	0,21721
535,799	0,2178
535,998	0,21823
536,198	0,21864
536,397	0,21949
536,597	0,22019
536,796	0,22099
536,995	0,22159
537,195	0,22214
537,394	0,22267
537,594	0,22343
537,793	0,22394
537,992	0,22461
538,191	0,2253
538,391	0,22601
538,59	0,22636
538,789	0,22705
538,988	0,22743
539,188	0,22784
539,387	0,22849
539,586	0,22893
539,785	0,22949
539,984	0,23003
540,184	0,23038
540,383	0,231
540,582	0,23162
540,781	0,23228
540,98	0,23283
541,179	0,23359
541,378	0,23426
541,577	0,23456
541,776	0,23512
541,975	0,23557
542,174	0,23593
542,373	0,23645
542,572	0,23669
542,771	0,23727
542,97	0,2377
543,169	0,23798
543,368	0,23827
543,567	0,23869
543,766	0,23913
543,965	0,23944
544,164	0,23976
544,362	0,24029
544,561	0,24089
544,76	0,24141
544,959	0,2418
545,158	0,24222
545,356	0,24251
545,555	0,24293
545,754	0,24344
545,953	0,24388
546,151	0,24422
546,35	0,24467
546,549	0,24492
546,748	0,24517
546,946	0,24542
547,145	0,2456
547,344	0,24602
547,542	0,24631
547,741	0,24671
547,939	0,24681
548,138	0,24707
548,337	0,24731
548,535	0,24737
548,734	0,24765
548,932	0,24787
549,131	0,2481
549,329	0,24836
549,528	0,24864
549,726	0,24895
549,925	0,2491
550,123	0,24943
550,322	0,24977
550,52	0,2503
550,718	0,25061
550,917	0,25087
551,115	0,25088
551,313	0,25121
551,512	0,25147
551,71	0,25162
551,908	0,25192
552,107	0,25236
552,305	0,25252
552,503	0,25289
552,702	0,25277
552,9	0,25288
553,098	0,25323
553,296	0,25371
553,495	0,25393
553,693	0,25408
553,891	0,25432
554,089	0,25456
554,287	0,25466
554,485	0,255
554,683	0,25509
554,882	0,25557
555,08	0,25618
555,278	0,25635
555,476	0,25662
555,674	0,25696
555,872	0,25738
556,07	0,25776
556,268	0,25806
556,466	0,25818
556,664	0,25873
556,862	0,25902
557,06	0,25958
557,258	0,2598
557,456	0,26032
557,654	0,26074
557,851	0,26108
558,049	0,26135
558,247	0,26161
558,445	0,262
558,643	0,26246
558,841	0,26263
559,039	0,26296
559,236	0,26301
559,434	0,26328
559,632	0,26355
559,83	0,26385
560,027	0,26416
560,225	0,26455
560,423	0,26483
560,62	0,26527
560,818	0,26555
561,016	0,266
561,213	0,26637
561,411	0,26687
561,609	0,2674
561,806	0,26792
562,004	0,26819
562,202	0,26839
562,399	0,26873
562,597	0,26921
562,794	0,26963
562,992	0,27008
563,189	0,27038
563,387	0,2709
563,584	0,2715
563,782	0,27165
563,979	0,27203
564,177	0,27259
564,374	0,2734
564,571	0,27393
564,769	0,2744
564,966	0,27474
565,164	0,27525
565,361	0,2757
565,558	0,27621
565,756	0,27645
565,953	0,27703
566,15	0,27754
566,347	0,27805
566,545	0,27848
566,742	0,27904
566,939	0,27949
567,136	0,28013
567,334	0,28074
567,531	0,28128
567,728	0,28194
567,925	0,28268
568,122	0,28338
568,319	0,28391
568,517	0,28478
568,714	0,2854
568,911	0,28605
569,108	0,28688
569,305	0,28744
569,502	0,28814
569,699	0,28907
569,896	0,28964
570,093	0,2904
570,29	0,29114
570,487	0,29181
570,684	0,29252
570,881	0,29339
571,078	0,29402
571,275	0,29473
571,472	0,29561
571,669	0,29617
571,866	0,29681
572,062	0,29763
572,259	0,29827
572,456	0,29906
572,653	0,29984
572,85	0,30051
573,047	0,30105
573,243	0,30187
573,44	0,30246
573,637	0,30315
573,834	0,30409
574,03	0,30481
574,227	0,30549
574,424	0,30634
574,62	0,3069
574,817	0,30783
575,014	0,30856
575,21	0,30945
575,407	0,3101
575,604	0,31109
575,8	0,31201
575,997	0,31293
576,193	0,31394
576,39	0,31478
576,586	0,31562
576,783	0,31669
576,979	0,31743
577,176	0,3183
577,372	0,31919
577,569	0,32022
577,765	0,32098
577,962	0,3218
578,158	0,32248
578,355	0,32328
578,551	0,32408
578,747	0,32478
578,944	0,32569
579,14	0,32652
579,336	0,32716
579,533	0,32793
579,729	0,32867
579,925	0,3296
580,122	0,33025
580,318	0,33125
580,514	0,33176
580,71	0,33241
580,906	0,33333
581,103	0,334
581,299	0,33471
581,495	0,33527
581,691	0,33587
581,887	0,33674
582,084	0,33748
582,28	0,33826
582,476	0,33865
582,672	0,33925
582,868	0,3401
583,064	0,34061
583,26	0,3412
583,456	0,34189
583,652	0,34282
583,848	0,34356
584,044	0,34386
584,24	0,34437
584,436	0,34485
584,632	0,34554
584,828	0,34628
585,024	0,3467
585,22	0,34713
585,416	0,3475
585,611	0,34782
585,807	0,34794
586,003	0,34844
586,199	0,34898
586,395	0,34937
586,591	0,34984
586,786	0,35014
586,982	0,35032
587,178	0,3507
587,374	0,35108
587,569	0,35137
587,765	0,35172
587,961	0,35212
588,156	0,35213
588,352	0,35223
588,548	0,3523
588,743	0,35234
588,939	0,35224
589,135	0,35236
589,33	0,35248
589,526	0,35246
589,721	0,35245
589,917	0,35236
590,112	0,3522
590,308	0,35224
590,503	0,35219
590,699	0,35194
590,894	0,35179
591,09	0,35175
591,285	0,3516
591,481	0,35122
591,676	0,35104
591,872	0,35083
592,067	0,35049
592,262	0,35021
592,458	0,34993
592,653	0,34956
592,848	0,34923
593,044	0,34879
593,239	0,34825
593,434	0,34761
593,629	0,34706
593,825	0,34634
594,02	0,34576
594,215	0,34522
594,41	0,3446
594,606	0,34362
594,801	0,34274
594,996	0,34204
595,191	0,3412
595,386	0,3404
595,581	0,33953
595,777	0,33876
595,972	0,33795
596,167	0,33694
596,362	0,33599
596,557	0,33515
596,752	0,33449
596,947	0,3337
597,142	0,33263
597,337	0,33161
597,532	0,33063
597,727	0,32963
597,922	0,32845
598,117	0,32719
598,312	0,32602
598,507	0,32461
598,701	0,32321
598,896	0,32159
599,091	0,32007
599,286	0,31886
599,481	0,31742
599,676	0,316
599,87	0,31457
600,065	0,31295
600,26	0,3116
600,455	0,31008
600,65	0,30885
600,844	0,30752
601,039	0,30609
601,234	0,30479
601,428	0,30303
601,623	0,30148
601,818	0,29991
602,012	0,2984
602,207	0,29683
602,402	0,29521
602,596	0,29348
602,791	0,29162
602,985	0,28989
603,18	0,28806
603,374	0,28626
603,569	0,28457
603,763	0,28295
603,958	0,28121
604,152	0,27938
604,347	0,27766
604,541	0,27576
604,736	0,2739
604,93	0,27218
605,125	0,27012
605,319	0,26838
605,513	0,26629
605,708	0,26426
605,902	0,26238
606,096	0,26041
606,291	0,25856
606,485	0,25657
606,679	0,25472
606,874	0,25277
607,068	0,25085
607,262	0,24896
607,456	0,24716
607,65	0,24536
607,845	0,24365
608,039	0,24168
608,233	0,23978
608,427	0,23769
608,621	0,23576
608,815	0,23383
609,01	0,23199
609,204	0,22993
609,398	0,22824
609,592	0,22628
609,786	0,22449
609,98	0,22265
610,174	0,22075
610,368	0,21886
610,562	0,21699
610,756	0,21513
610,95	0,21323
611,144	0,21131
611,338	0,2095
611,532	0,20736
611,726	0,20538
611,919	0,20345
612,113	0,20144
612,307	0,19952
612,501	0,19753
612,695	0,19577
612,889	0,19386
613,082	0,19192
613,276	0,19003
613,47	0,18813
613,664	0,18631
613,857	0,18432
614,051	0,18243
614,245	0,18066
614,439	0,17868
614,632	0,17693
614,826	0,1749
615,02	0,17297
615,213	0,1712
615,407	0,16943
615,6	0,16756
615,794	0,1657
615,988	0,16396
616,181	0,16213
616,375	0,16032
616,568	0,15869
616,762	0,15693
616,955	0,15534
617,149	0,15361
617,342	0,15179
617,536	0,15006
617,729	0,14848
617,923	0,147
618,116	0,14544
618,309	0,1438
618,503	0,14218
618,696	0,14054
618,889	0,13891
619,083	0,13715
619,276	0,13563
619,469	0,13407
619,663	0,13253
619,856	0,13093
620,049	0,12923
620,242	0,12771
620,436	0,12613
620,629	0,12459
620,822	0,12313
621,015	0,12159
621,209	0,12024
621,402	0,11885
621,595	0,1174
621,788	0,11605
621,981	0,11473
622,174	0,11341
622,367	0,11199
622,56	0,1106
622,753	0,10925
622,946	0,10784
623,139	0,1065
623,332	0,10518
623,525	0,1038
623,718	0,10254
623,911	0,10125
624,104	0,09987
624,297	0,09857
624,49	0,09734
624,683	0,09613
624,876	0,09485
625,069	0,09355
625,262	0,09244
625,454	0,09125
625,647	0,09012
625,84	0,08893
626,033	0,08779
626,226	0,08668
626,418	0,0855
626,611	0,08446
626,804	0,08335
626,997	0,08217
627,189	0,0812
627,382	0,0802
627,575	0,07922
627,767	0,0782
627,96	0,07725
628,153	0,07616
628,345	0,07518
628,538	0,0743
628,731	0,07325
628,923	0,07234
629,116	0,07166
629,308	0,07068
629,501	0,06967
629,693	0,06879
629,886	0,06793
630,078	0,0669
630,271	0,06616
630,463	0,0653
630,656	0,06441
630,848	0,06351
631,04	0,06264
631,233	0,06168
631,425	0,06088
631,617	0,06002
631,81	0,05917
632,002	0,05827
632,194	0,0576
632,387	0,05669
632,579	0,05591
632,771	0,0551
632,964	0,05439
633,156	0,05362
633,348	0,05282
633,54	0,05215
633,732	0,05138
633,925	0,0507
634,117	0,05016
634,309	0,04942
634,501	0,0487
634,693	0,04792
634,885	0,04722
635,077	0,04651
635,269	0,04589
635,462	0,0453
635,654	0,04467
635,846	0,04414
636,038	0,04341
636,23	0,04272
636,422	0,04223
636,614	0,04165
636,806	0,04113
636,997	0,04064
637,189	0,04015
637,381	0,03956
637,573	0,039
637,765	0,03848
637,957	0,03784
638,149	0,03737
638,341	0,03686
638,532	0,03629
638,724	0,03576
638,916	0,03532
639,108	0,03475
639,299	0,03433
639,491	0,03382
639,683	0,03352
639,875	0,03302
640,066	0,03269
640,258	0,03222
640,45	0,03167
640,641	0,03126
640,833	0,03091
641,025	0,03049
641,216	0,03006
641,408	0,02959
641,599	0,02922
641,791	0,02875
641,982	0,02822
642,174	0,02776
642,366	0,02734
642,557	0,02703
642,748	0,02654
642,94	0,02617
643,131	0,02572
643,323	0,02542
643,514	0,02512
643,706	0,0248
643,897	0,02439
644,088	0,02424
644,28	0,02395
644,471	0,02365
644,662	0,02332
644,854	0,02307
645,045	0,02279
645,236	0,02243
645,428	0,02213
645,619	0,02174
645,81	0,02144
646,001	0,02107
646,193	0,02073
646,384	0,02036
646,575	0,02006
646,766	0,01974
646,957	0,01944
647,148	0,01903
647,339	0,0189
647,531	0,01867
647,722	0,01844
647,913	0,01815
648,104	0,01796
648,295	0,01762
648,486	0,01741
648,677	0,01713
648,868	0,01696
649,059	0,01673
649,25	0,0166
649,441	0,01635
649,632	0,01606
649,823	0,01589
650,013	0,01567
650,204	0,01537
650,395	0,01513
650,586	0,01495
650,777	0,01478
650,968	0,01455
651,159	0,01435
651,349	0,01408
651,54	0,01382
651,731	0,0135
651,922	0,0133
652,112	0,01304
652,303	0,01286
652,494	0,01276
652,684	0,01249
652,875	0,01237
653,066	0,01215
653,256	0,01208
653,447	0,01196
653,638	0,01177
653,828	0,01166
654,019	0,01145
654,209	0,01139
654,4	0,01133
654,59	0,01121
654,781	0,01119
654,972	0,01098
655,162	0,01088
655,352	0,01065
655,543	0,01046
655,733	0,01033
655,924	0,01035
656,114	0,01015
656,305	0,00999
656,495	0,00979
656,685	0,00956
656,876	0,0094
657,066	0,00931
657,256	0,00924
657,447	0,00916
657,637	0,00905
657,827	0,00897
658,017	0,00881
658,208	0,00872
658,398	0,00851
658,588	0,00841
658,778	0,0083
658,968	0,00815
659,159	0,00804
659,349	0,00782
659,539	0,00763
659,729	0,00758
659,919	0,00746
660,109	0,00731
660,299	0,00736
660,489	0,00745
660,679	0,00735
660,869	0,00732
661,059	0,00722
661,249	0,0071
661,439	0,00704
661,629	0,00696
661,819	0,00679
662,009	0,00675
662,199	0,0067
662,389	0,0065
662,579	0,00627
662,769	0,00613
662,959	0,00611
663,149	0,00609
663,338	0,00599
663,528	0,00601
663,718	0,00595
663,908	0,00578
664,097	0,00566
664,287	0,0055
664,477	0,00537
664,667	0,00529
664,856	0,00527
665,046	0,00506
665,236	0,0049
665,425	0,00484
665,615	0,00468
665,805	0,0046
665,994	0,00468
666,184	0,00458
666,373	0,00458
666,563	0,00453
666,753	0,00446
666,942	0,00437
667,132	0,00425
667,321	0,00421
667,511	0,00411
667,7	0,00409
667,889	0,00391
668,079	0,00381
668,268	0,00381
668,458	0,00372
668,647	0,00377
668,836	0,00377
669,026	0,00375
669,215	0,00372
669,404	0,00373
669,594	0,00367
669,783	0,00361
669,972	0,00376
670,162	0,00373
670,351	0,00359
670,54	0,00351
670,729	0,0034
670,919	0,00336
671,108	0,00329
671,297	0,00332
671,486	0,00321
671,675	0,00316
671,864	0,00311
672,053	0,00296
672,243	0,00289
672,432	0,00286
672,621	0,00291
672,81	0,00284
672,999	0,00276
673,188	0,00282
673,377	0,00282
673,566	0,00284
673,755	0,00285
673,944	0,00275
674,133	0,00266
674,322	0,00272
674,51	0,00278
674,699	0,00267
674,888	0,0026
675,077	0,00256
675,266	0,00252
675,455	0,00245
675,644	0,00236
675,832	0,0023
676,021	0,00231
676,21	0,00238
676,399	0,00225
676,587	0,00226
676,776	0,00231
676,965	0,00224
677,153	0,00224
677,342	0,00211
677,531	0,00204
677,719	0,00203
677,908	0,00205
678,097	0,00201
678,285	0,00193
678,474	0,00195
678,662	0,0019
678,851	0,00184
679,039	0,00191
679,228	0,00186
679,416	0,00196
679,605	0,00187
679,793	0,00189
679,982	0,00183
680,17	0,00181
680,359	0,00187
680,547	0,00181
680,736	0,00173
680,924	0,00173
681,112	0,00171
681,301	0,00178
681,489	0,00165
681,677	0,00171
681,866	0,00166
682,054	0,00157
682,242	0,00163
682,43	0,00163
682,619	0,00158
682,807	0,00151
682,995	0,00135
683,183	0,00124
683,371	0,00124
683,559	0,00125
683,748	0,00119
683,936	0,00114
684,124	0,00116
684,312	0,00109
684,5	0,00095
684,688	0,00108
684,876	0,00105
685,064	0,00107
685,252	0,00112
685,44	0,00099
685,628	0,00091
685,816	0,00103
686,004	0,001
686,192	0,00093
686,38	0,00084
686,568	0,0009
686,756	0,00078
686,944	0,00078
687,131	0,0008
687,319	0,00077
687,507	0,0007
687,695	0,0007
687,883	0,0006
688,07	0,00056
688,258	0,00066
688,446	0,00063
688,634	0,00067
688,821	0,00058
689,009	0,00057
689,197	0,00063
689,384	0,00059
689,572	0,00062
689,76	0,00066
689,947	0,00071
690,135	0,00074
690,323	0,00072
690,51	0,00075
690,698	0,00065
690,885	0,00081
691,073	0,00078
691,26	0,00066
691,448	0,00074
691,635	0,00074
691,823	0,00065
692,01	0,00057
692,197	0,00052
692,385	0,00051
692,572	0,00056
692,76	0,00059
692,947	0,00053
693,134	0,00071
693,322	0,00063
693,509	0,00049
693,696	0,00045
693,884	0,00048
694,071	0,00038
694,258	0,00042
694,445	0,00037
694,633	0,00038
694,82	0,00027
695,007	0,00027
695,194	0,00008
695,381	0,00015
695,568	0,0002
695,756	0,00016
695,943	0,0002
696,13	0,00021
696,317	0,00017
696,504	0,0002
696,691	0,00012
696,878	0,00009
697,065	-0,00001
697,252	-0,00004
697,439	-0
697,626	-0
697,813	0,00001
698	-0,00006
698,187	-0,0001
698,374	-0,00002
698,561	-0,00007
698,747	-0,00011
698,934	-0,00008
699,121	-0,00002
699,308	-0,00004
699,495	-0,00014
699,682	-0,00019
699,868	-0,00021
700,055	-0,00029
700,242	-0,00029
700,429	-0,0004
700,615	-0,00047
700,802	-0,00052
700,989	-0,00055
701,175	-0,00066
701,362	-0,00059
701,549	-0,00057
701,735	-0,00049
701,922	-0,00048
702,108	-0,0004
702,295	-0,00035
702,482	-0,00032
702,668	-0,00028
702,855	-0,00024
703,041	-0,00011
703,228	-0,00002
703,414	-0,00014
703,601	-0,00013
703,787	-0,00021
703,973	-0,00028
704,16	-0,00032
704,346	-0,00033
704,533	-0,00045
704,719	-0,00043
704,905	-0,00053
705,092	-0,0007
705,278	-0,00072
705,464	-0,00061
705,65	-0,00058
705,837	-0,00068
706,023	-0,00065
706,209	-0,00066
706,395	-0,00073
706,582	-0,00059
706,768	-0,00062
706,954	-0,00043
707,14	-0,00038
707,326	-0,00043
707,512	-0,00056
707,698	-0,00059
707,885	-0,00056
708,071	-0,00062
708,257	-0,0006
708,443	-0,00044
708,629	-0,00048
708,815	-0,00044
709,001	-0,00063
709,187	-0,00065
709,373	-0,0006
709,559	-0,00064
709,745	-0,00073
709,93	-0,00076
710,116	-0,00067
710,302	-0,00061
710,488	-0,00067
710,674	-0,00072
710,86	-0,00081
711,046	-0,00072
711,231	-0,00079
711,417	-0,00082
711,603	-0,00075
711,789	-0,00066
711,974	-0,00057
712,16	-0,00062
712,346	-0,00076
712,532	-0,0008
712,717	-0,00077
712,903	-0,00076
713,089	-0,00075
713,274	-0,00075
713,46	-0,00072
713,645	-0,00074
713,831	-0,00073
714,016	-0,00078
714,202	-0,00068
714,388	-0,00046
714,573	-0,00056
714,759	-0,0006
714,944	-0,00061
715,129	-0,00071
715,315	-0,00065
715,5	-0,00074
715,686	-0,00069
715,871	-0,0007
716,057	-0,00075
716,242	-0,00078
716,427	-0,00097
716,613	-0,00093
716,798	-0,00093
716,983	-0,00092
717,168	-0,00084
717,354	-0,00081
717,539	-0,00078
717,724	-0,00076
717,909	-0,00072
718,095	-0,00062
718,28	-0,00067
718,465	-0,00065
718,65	-0,00066
718,835	-0,00073
719,02	-0,00067
719,206	-0,00073
719,391	-0,00072
719,576	-0,00087
719,761	-0,00096
719,946	-0,00103
720,131	-0,00112
720,316	-0,00113
720,501	-0,00112
720,686	-0,0011
720,871	-0,001
721,056	-0,00106
721,241	-0,00107
721,426	-0,0012
721,61	-0,00108
721,795	-0,00111
721,98	-0,00111
722,165	-0,001
722,35	-0,00093
722,535	-0,00093
722,719	-0,00091
722,904	-0,00092
723,089	-0,00095
723,274	-0,0009
723,458	-0,00093
723,643	-0,00089
723,828	-0,00088
724,013	-0,0009
724,197	-0,00099
724,382	-0,00112
724,567	-0,00122
724,751	-0,00122
724,936	-0,00117
725,12	-0,00117
725,305	-0,00118
725,489	-0,00109
725,674	-0,00108
725,859	-0,00106
726,043	-0,00105
726,228	-0,00098
726,412	-0,00092
726,596	-0,00086
726,781	-0,00085
726,965	-0,00089
727,15	-0,0008
727,334	-0,00089
727,518	-0,00099
727,703	-0,00101
727,887	-0,00099
728,072	-0,00097
728,256	-0,00094
728,44	-0,00087
728,624	-0,00079
728,809	-0,00094
728,993	-0,00095
729,177	-0,00094
729,361	-0,00086
729,546	-0,00078
729,73	-0,00082
729,914	-0,00094
730,098	-0,00102
730,282	-0,00116
730,466	-0,00128
730,65	-0,00132
730,834	-0,0012
731,019	-0,0013
731,203	-0,00135
731,387	-0,00133
731,571	-0,00144
731,755	-0,00144
731,939	-0,00139
732,123	-0,00144
732,306	-0,00131
732,49	-0,0013
732,674	-0,00135
732,858	-0,00134
733,042	-0,00126
733,226	-0,00123
733,41	-0,00126
733,594	-0,00113
733,778	-0,00111
733,961	-0,00105
734,145	-0,001
734,329	-0,00104
734,513	-0,00098
734,696	-0,00092
734,88	-0,00095
735,064	-0,00103
735,247	-0,00113
735,431	-0,00113
735,615	-0,00122
735,798	-0,00116
735,982	-0,00106
736,166	-0,00099
736,349	-0,00105
736,533	-0,0011
736,716	-0,00116
736,9	-0,00119
737,083	-0,00122
737,267	-0,00131
737,45	-0,0014
737,634	-0,00132
737,817	-0,00136
738,001	-0,00151
738,184	-0,00156
738,368	-0,00155
738,551	-0,00161
738,734	-0,00165
738,918	-0,00152
739,101	-0,00139
739,284	-0,00129
739,468	-0,0013
739,651	-0,00125
739,834	-0,00136
740,018	-0,00136
740,201	-0,00142
740,384	-0,00146
740,567	-0,00131
740,75	-0,00117
740,934	-0,00137
741,117	-0,00144
741,3	-0,00136
741,483	-0,0013
741,666	-0,00138
741,849	-0,00131
742,032	-0,00129
742,215	-0,00125
742,399	-0,00118
742,582	-0,00131
742,765	-0,0015
742,948	-0,00142
743,131	-0,00134
743,314	-0,00153
743,496	-0,00159
743,679	-0,00157
743,862	-0,00147
744,045	-0,00146
744,228	-0,00152
744,411	-0,00159
744,594	-0,00158
744,777	-0,00146
744,959	-0,00139
745,142	-0,00135
745,325	-0,00122
745,508	-0,00117
745,691	-0,00108
745,873	-0,00127
746,056	-0,00129
746,239	-0,00125
746,421	-0,00113
746,604	-0,00115
746,787	-0,00113
746,969	-0,00117
747,152	-0,00124
747,335	-0,0013
747,517	-0,0013
747,7	-0,00131
747,882	-0,00127
748,065	-0,00136
748,247	-0,00133
748,43	-0,00142
748,612	-0,00138
748,795	-0,00144
748,977	-0,0015
749,16	-0,00163
749,342	-0,00153
749,524	-0,00158
749,707	-0,0017
749,889	-0,00166
750,072	-0,00166
750,254	-0,00169
750,436	-0,00165
750,619	-0,00172
750,801	-0,00176
750,983	-0,00182
751,165	-0,00173
751,348	-0,00181
751,53	-0,00184
751,712	-0,0018
751,894	-0,00183
752,076	-0,00171
752,259	-0,00169
752,441	-0,00183
752,623	-0,00187
752,805	-0,00191
752,987	-0,00194
753,169	-0,00196
753,351	-0,00198
753,533	-0,00199
753,715	-0,00199
753,897	-0,002
754,079	-0,00202
754,261	-0,00207
754,443	-0,002
754,625	-0,00183
754,807	-0,00166
754,989	-0,00149
755,171	-0,00151
755,353	-0,00149
755,534	-0,00154
755,716	-0,00155
755,898	-0,00162
756,08	-0,00154
756,262	-0,00155
756,443	-0,00168
756,625	-0,00176
756,807	-0,00188
756,989	-0,00202
757,17	-0,00203
757,352	-0,00205
757,534	-0,00198
757,715	-0,002
757,897	-0,00201
758,079	-0,00206
758,26	-0,00199
758,442	-0,00184
758,623	-0,00194
758,805	-0,00196
758,987	-0,00192
759,168	-0,00189
759,35	-0,00195
759,531	-0,0019
759,713	-0,00198
759,894	-0,00202
760,075	-0,00212
760,257	-0,00215
760,438	-0,00217
760,62	-0,00218
760,801	-0,00216
760,982	-0,00222
761,164	-0,00225
761,345	-0,00219
761,526	-0,00222
761,708	-0,00222
761,889	-0,00208
762,07	-0,00206
762,251	-0,00207
762,433	-0,00213
762,614	-0,00208
762,795	-0,00201
762,976	-0,00195
763,157	-0,00188
763,338	-0,00197
763,52	-0,00199
763,701	-0,00195
763,882	-0,00205
764,063	-0,00199
764,244	-0,00198
764,425	-0,0019
764,606	-0,00197
764,787	-0,00204
764,968	-0,00209
765,149	-0,00224
765,33	-0,00214
765,511	-0,00208
765,692	-0,00211
765,873	-0,00211
766,053	-0,0022
766,234	-0,00225
766,415	-0,00229
766,596	-0,00227
766,777	-0,00235
766,958	-0,00238
767,138	-0,00225
767,319	-0,00232
767,5	-0,00236
767,681	-0,00244
767,861	-0,00228
768,042	-0,00232
768,223	-0,00226
768,403	-0,00233
768,584	-0,00222
768,765	-0,0022
768,945	-0,00229
769,126	-0,00233
769,307	-0,00237
769,487	-0,0024
769,668	-0,00229
769,848	-0,0024
770,029	-0,00231
770,209	-0,00235
770,39	-0,00237
770,57	-0,00246
770,751	-0,00251
770,931	-0,00239
771,111	-0,00247
771,292	-0,0024
771,472	-0,00241
771,653	-0,0024
771,833	-0,00242
772,013	-0,00243
772,194	-0,00243
772,374	-0,00244
772,554	-0,00241
772,734	-0,00223
772,915	-0,00222
773,095	-0,0022
773,275	-0,00227
773,455	-0,00227
773,635	-0,00246
773,816	-0,00238
773,996	-0,00234
774,176	-0,00231
774,356	-0,00229
774,536	-0,00228
774,716	-0,00246
774,896	-0,00254
775,076	-0,00257
775,256	-0,00251
775,436	-0,00242
775,616	-0,00225
775,796	-0,00227
775,976	-0,00234
776,156	-0,00235
776,336	-0,00228
776,516	-0,00242
776,696	-0,00236
776,876	-0,00226
777,056	-0,00221
777,235	-0,0022
777,415	-0,00229
777,595	-0,00245
777,775	-0,00247
777,955	-0,00261
778,134	-0,00263
778,314	-0,00265
778,494	-0,00256
778,674	-0,00258
778,853	-0,00261
779,033	-0,00263
779,213	-0,00265
779,392	-0,00259
779,572	-0,00246
779,751	-0,00263
779,931	-0,00248
780,111	-0,00254
780,29	-0,0026
780,47	-0,00259
780,649	-0,00269
780,829	-0,00273
781,008	-0,00264
781,188	-0,0027
781,367	-0,00272
781,546	-0,00274
781,726	-0,00263
781,905	-0,0026
782,085	-0,00261
782,264	-0,00256
782,443	-0,00252
782,623	-0,00242
782,802	-0,00235
782,981	-0,00244
783,161	-0,00245
783,34	-0,0024
783,519	-0,00227
783,698	-0,0022
783,878	-0,00224
784,057	-0,00232
784,236	-0,00232
784,415	-0,00224
784,594	-0,00221
784,773	-0,00229
784,952	-0,00218
785,132	-0,00225
785,311	-0,00218
785,49	-0,00233
785,669	-0,00242
785,848	-0,00241
786,027	-0,00227
786,206	-0,0024
786,385	-0,00251
786,564	-0,00253
786,743	-0,00249
786,922	-0,0026
787,1	-0,00247
787,279	-0,00264
787,458	-0,00263
787,637	-0,0026
787,816	-0,00252
787,995	-0,0025
788,174	-0,00245
788,352	-0,00239
788,531	-0,00238
788,71	-0,00241
788,889	-0,00241
789,067	-0,00252
789,246	-0,0026
789,425	-0,00253
789,603	-0,00265
789,782	-0,0028
789,961	-0,0029
790,139	-0,00274
790,318	-0,00278
790,496	-0,00275
790,675	-0,00257
790,853	-0,00252
791,032	-0,0025
791,211	-0,0025
791,389	-0,0025
791,568	-0,00232
791,746	-0,00227
791,924	-0,00221
792,103	-0,00239
792,281	-0,00237
792,46	-0,00243
792,638	-0,00253
792,816	-0,00255
792,995	-0,00248
793,173	-0,00243
793,351	-0,00258
793,53	-0,00255
793,708	-0,00249
793,886	-0,00247
794,064	-0,00242
794,243	-0,00236
794,421	-0,00228
794,599	-0,00229
794,777	-0,00235
794,955	-0,00237
795,133	-0,00227
795,312	-0,00226
795,49	-0,00232
795,668	-0,00245
795,846	-0,00262
796,024	-0,00251
796,202	-0,00263
796,38	-0,0028
796,558	-0,00292
796,736	-0,00294
796,914	-0,00293
797,092	-0,00313
797,27	-0,00305
797,448	-0,00321
797,626	-0,00306
797,803	-0,00303
797,981	-0,00309
798,159	-0,00304
798,337	-0,00291
798,515	-0,00282
798,693	-0,00273
798,87	-0,00284
799,048	-0,00271
799,226	-0,00281
799,404	-0,00273
799,581	-0,00293
799,759	-0,00285
799,937	-0,00296
800,114	-0,00308
800,292	-0,00316
800,469	-0,00317
800,647	-0,00327
800,825	-0,00323
801,002	-0,00339
801,18	-0,00341
801,357	-0,00331
801,535	-0,00324
801,712	-0,00323
801,89	-0,00311
802,067	-0,00307
802,245	-0,00306
802,422	-0,00312
802,6	-0,00312
802,777	-0,00311
802,954	-0,00289
803,132	-0,00285
803,309	-0,00292
803,486	-0,00295
803,664	-0,00295
803,841	-0,00294
804,018	-0,00289
804,195	-0,00297
804,373	-0,00296
804,55	-0,00284
804,727	-0,00282
804,904	-0,00293
805,081	-0,00292
805,259	-0,00284
805,436	-0,00304
805,613	-0,00315
805,79	-0,00329
805,967	-0,00329
806,144	-0,0033
806,321	-0,00327
806,498	-0,00323
806,675	-0,00315
806,852	-0,00307
807,029	-0,00308
807,206	-0,00323
807,383	-0,0029
807,56	-0,00281
807,737	-0,00284
807,914	-0,00295
808,091	-0,0028
808,268	-0,00265
808,444	-0,00279
808,621	-0,00294
808,798	-0,00317
808,975	-0,00324
809,152	-0,00328
809,328	-0,00332
809,505	-0,00339
809,682	-0,0033
809,858	-0,00336
810,035	-0,00346
810,212	-0,00372
810,388	-0,00368
810,565	-0,00361
810,742	-0,00345
810,918	-0,00342
811,095	-0,00338
811,271	-0,00349
811,448	-0,00346
811,625	-0,00345
811,801	-0,00336
811,978	-0,00329
812,154	-0,00324
812,33	-0,00318
812,507	-0,00317
812,683	-0,00314
812,86	-0,0031
813,036	-0,00299
813,212	-0,00297
813,389	-0,00304
813,565	-0,00309
813,741	-0,00298
813,918	-0,00298
814,094	-0,00291
814,27	-0,00303
814,447	-0,00308
814,623	-0,00307
814,799	-0,00299
814,975	-0,00299
815,151	-0,00289
815,328	-0,00287
815,504	-0,00285
815,68	-0,00287
815,856	-0,00285
816,032	-0,00277
816,208	-0,0027
816,384	-0,00275
816,56	-0,00284
816,736	-0,00295
816,912	-0,00304
817,088	-0,00301
817,264	-0,00294
817,44	-0,00283
817,616	-0,00287
817,792	-0,00303
817,968	-0,00305
818,144	-0,00302
818,32	-0,00295
818,495	-0,00283
818,671	-0,00285
818,847	-0,00289
819,023	-0,00278
819,199	-0,00275
819,374	-0,0027
819,55	-0,00275
819,726	-0,00259
819,902	-0,00264
820,077	-0,00272
820,253	-0,00263
820,429	-0,00271
820,604	-0,0025
820,78	-0,00239
820,956	-0,00257
821,131	-0,00265
821,307	-0,00278
821,482	-0,00285
821,658	-0,00276
821,833	-0,00297
822,009	-0,00322
822,184	-0,00328
822,36	-0,0032
822,535	-0,00327
822,711	-0,00336
822,886	-0,00333
823,061	-0,0034
823,237	-0,00332
823,412	-0,00318
823,587	-0,00328
823,763	-0,00322
823,938	-0,00303
824,113	-0,00306
824,289	-0,00307
824,464	-0,00313
824,639	-0,00304
824,814	-0,00314
824,99	-0,00306
825,165	-0,00321
825,34	-0,00309
825,515	-0,00299
825,69	-0,003
825,865	-0,00283
826,04	-0,00281
826,215	-0,00266
826,39	-0,00236
826,566	-0,00237
826,741	-0,00224
826,916	-0,00218
827,091	-0,00217
827,265	-0,00233
827,44	-0,00255
827,615	-0,00242
827,79	-0,00256
827,965	-0,00257
828,14	-0,00275
828,315	-0,00283
828,49	-0,00279
828,665	-0,00287
828,839	-0,003
829,014	-0,00298
829,189	-0,00301
829,364	-0,00284
829,538	-0,00276
829,713	-0,00293
829,888	-0,00288
830,063	-0,00289
830,237	-0,00327
830,412	-0,00333
830,587	-0,00334
830,761	-0,00317
830,936	-0,00315
831,11	-0,0032
831,285	-0,00325
831,459	-0,00326
831,634	-0,00302
831,809	-0,00295
831,983	-0,00299
832,157	-0,00274
832,332	-0,00276
832,506	-0,00275
832,681	-0,00291
832,855	-0,0029
833,03	-0,00292
833,204	-0,00303
833,378	-0,00315
833,553	-0,00312
833,727	-0,00317
833,901	-0,00324
834,076	-0,00309
834,25	-0,00327
834,424	-0,0032
834,598	-0,00304
834,773	-0,00308
834,947	-0,0029
835,121	-0,00285
835,295	-0,00289
835,469	-0,00307
835,643	-0,00321
835,817	-0,00319
835,991	-0,00365
836,166	-0,00349
836,34	-0,00339
836,514	-0,00354
836,688	-0,00342
836,862	-0,00349
837,036	-0,00356
837,21	-0,00341
837,384	-0,00332
837,557	-0,00328
837,731	-0,00325
837,905	-0,0029
838,079	-0,00293
838,253	-0,00313
838,427	-0,00325
838,601	-0,00342
838,774	-0,00353
838,948	-0,00348
839,122	-0,00346
839,296	-0,00342
839,469	-0,00326
839,643	-0,00346
839,817	-0,00372
839,991	-0,00369
840,164	-0,00362
840,338	-0,00369
840,512	-0,00346
840,685	-0,00328
840,859	-0,00321
841,032	-0,00313
841,206	-0,0031
841,379	-0,00326
841,553	-0,0029
841,726	-0,00274
841,9	-0,00264
842,073	-0,0026
842,247	-0,00248
842,42	-0,00265
842,594	-0,00261
842,767	-0,00269
842,94	-0,0028
843,114	-0,00281
843,287	-0,00278
843,46	-0,00299
843,634	-0,00311
843,807	-0,0031
843,98	-0,00319
844,154	-0,00304
844,327	-0,0032
844,5	-0,00324
844,673	-0,00326
844,846	-0,00338
845,02	-0,00339
845,193	-0,0035
845,366	-0,00327
845,539	-0,00323
845,712	-0,0032
845,885	-0,0034
846,058	-0,00343
846,231	-0,00332
846,404	-0,0033
846,577	-0,0033
846,75	-0,00302
846,923	-0,00298
847,096	-0,00289
847,269	-0,00291
847,442	-0,00273
847,615	-0,00269
847,788	-0,00246
847,961	-0,00247
848,133	-0,00229
848,306	-0,00226
848,479	-0,00217
848,652	-0,00233
848,825	-0,00237
848,997	-0,00234
849,17	-0,00238
849,343	-0,00257
849,515	-0,00265
849,688	-0,00275
849,861	-0,00274
850,033	-0,00274
850,206	-0,00284
850,379	-0,00286
850,551	-0,00289
850,724	-0,00299
850,896	-0,00314
851,069	-0,00324
851,241	-0,00331
851,414	-0,00326
851,586	-0,00325
851,759	-0,00337
851,931	-0,00348
852,104	-0,00361
852,276	-0,00368
852,449	-0,00366
852,621	-0,00365
852,793	-0,00378
852,966	-0,00379
853,138	-0,00367
853,31	-0,00381
853,483	-0,00355
853,655	-0,00347
853,827	-0,00356
853,999	-0,00354
854,172	-0,00347
854,344	-0,00356
854,516	-0,00332
854,688	-0,00304
854,86	-0,00314
855,032	-0,00327
855,204	-0,00319
855,377	-0,00357
855,549	-0,00344
855,721	-0,00355
855,893	-0,00332
856,065	-0,00351
856,237	-0,00352
856,409	-0,00389
856,581	-0,0039
856,753	-0,00368
856,924	-0,00346
857,096	-0,00351
857,268	-0,00333
857,44	-0,00345
857,612	-0,00321
857,784	-0,00356
857,956	-0,00344
858,127	-0,00333
858,299	-0,00324
858,471	-0,00321
858,643	-0,00342
858,814	-0,00352
858,986	-0,0035
859,158	-0,00351
859,33	-0,00359
859,501	-0,00376
859,673	-0,00367
859,844	-0,0036
860,016	-0,00368
860,188	-0,00364
860,359	-0,00381
860,531	-0,00376
860,702	-0,00376
860,874	-0,00405
861,045	-0,00401
861,217	-0,00385
861,388	-0,0037
861,56	-0,00374
861,731	-0,00392
861,902	-0,00388
862,074	-0,00376
862,245	-0,00349
862,417	-0,00345
862,588	-0,00358
862,759	-0,0034
862,931	-0,00348
863,102	-0,00364
863,273	-0,00372
863,444	-0,00366
863,616	-0,00352
863,787	-0,00362
863,958	-0,00388
864,129	-0,0041
864,3	-0,00415
864,471	-0,00403
864,642	-0,00387
864,814	-0,00401
864,985	-0,00425
865,156	-0,00436
865,327	-0,00451
865,498	-0,0043
865,669	-0,00444
865,84	-0,00415
866,011	-0,0042
866,182	-0,00421
866,353	-0,00419
866,523	-0,00436
866,694	-0,00409
866,865	-0,00363
867,036	-0,00366
867,207	-0,0037
867,378	-0,00419
867,549	-0,0041
867,719	-0,00442
867,89	-0,00448
868,061	-0,00444
868,232	-0,0047
868,402	-0,00497
868,573	-0,00514
868,744	-0,00525
868,914	-0,00519
869,085	-0,00519
869,256	-0,00496
869,426	-0,00512
869,597	-0,00484
869,767	-0,0048
869,938	-0,00476
870,108	-0,00443
870,279	-0,00422
870,449	-0,00442
870,62	-0,00478
870,79	-0,00473
870,961	-0,00433
871,131	-0,00425
871,302	-0,00389
871,472	-0,00378
871,642	-0,00359
871,813	-0,00347
871,983	-0,00362
872,153	-0,00345
872,324	-0,00325
872,494	-0,00312
872,664	-0,00329
872,835	-0,0032
873,005	-0,00305
873,175	-0,00324
873,345	-0,00325
873,515	-0,00344
873,685	-0,00365
873,856	-0,00341
874,026	-0,00356
874,196	-0,00342
874,366	-0,00344
874,536	-0,00323
874,706	-0,00359
874,876	-0,00384
875,046	-0,00364
875,216	-0,00382
875,386	-0,00344
875,556	-0,00325
875,726	-0,00362
875,896	-0,00354
876,066	-0,00349
876,236	-0,00366
876,405	-0,00388
876,575	-0,00382
876,745	-0,00397
876,915	-0,00396
877,085	-0,00421
877,254	-0,00446
877,424	-0,0045
877,594	-0,00441
877,764	-0,00471
877,933	-0,00497
878,103	-0,00473
878,273	-0,00443
878,442	-0,00448
878,612	-0,00429
878,781	-0,00442
878,951	-0,0042
879,121	-0,00427
879,29	-0,00449
879,46	-0,00447
879,629	-0,00409
879,799	-0,00407
879,968	-0,00355
880,138	-0,00336
880,307	-0,00322
880,476	-0,00324
880,646	-0,00351
880,815	-0,00356
880,985	-0,00348
881,154	-0,00351
881,323	-0,0035
881,493	-0,00364
881,662	-0,0037
881,831	-0,00393
882	-0,00414
882,17	-0,00403
882,339	-0,00397
882,508	-0,00387
882,677	-0,00358
882,846	-0,00366
883,016	-0,00356
883,185	-0,00353
883,354	-0,00367
883,523	-0,00359
883,692	-0,00372
883,861	-0,00358
884,03	-0,00409
884,199	-0,00414
884,368	-0,00367
884,537	-0,00414
884,706	-0,00435
884,875	-0,00416
885,044	-0,00408
885,213	-0,00385
885,382	-0,00391
885,55	-0,00417
885,719	-0,00462
885,888	-0,00438
886,057	-0,0046
886,226	-0,00506
886,395	-0,00485
886,563	-0,00485
886,732	-0,00514
886,901	-0,00525
887,069	-0,00538
887,238	-0,0055
887,407	-0,0053
887,575	-0,0049
887,744	-0,00466
887,913	-0,00481
888,081	-0,00468
888,25	-0,00446
888,418	-0,00441
888,587	-0,00451
888,755	-0,00457
888,924	-0,00447
889,092	-0,00459
889,261	-0,00485
889,429	-0,00502
889,598	-0,00527
889,766	-0,00472
889,935	-0,00462
890,103	-0,00498
890,271	-0,00502
890,44	-0,00504
890,608	-0,00504
890,776	-0,00532
890,944	-0,00494
891,113	-0,00481
891,281	-0,00513
891,449	-0,00517
891,617	-0,00551
891,786	-0,00567
891,954	-0,00548
892,122	-0,00512
892,29	-0,0048
892,458	-0,00496
892,626	-0,00447
892,794	-0,00447
892,962	-0,00434
893,13	-0,00398
893,298	-0,00372
893,466	-0,00353
