Data from Chemiepractica_Absorbance__33__11-46-13-097.txt Node

Date: Mon Dec 09 11:46:13 CET 2024
User: r0948668
Spectrometer: USB4F07138
Trigger mode: 4
Integration Time (sec): 6,000000E-3
Scans to average: 20
Electric dark correction enabled: true
Nonlinearity correction enabled: false
Boxcar width: 5
XAxis mode: Wavelengths
Number of Pixels in Spectrum: 3648
>>>>>Begin Spectral Data<<<<<
176,779	-0,33708
176,999	-0
177,218	-0
177,438	-1,00167
177,658	-0,39202
177,878	0,29828
178,097	0,29428
178,317	0,39436
178,537	0,15694
178,757	0,11637
178,976	0,2175
179,196	-0,15897
179,416	-0,14247
179,635	0,39546
179,855	0,17959
180,075	0,06234
180,294	-0,01258
180,514	-0,07059
180,734	-0,0497
180,953	-0,05065
181,173	-0,02337
181,392	-0,01639
181,612	-0,01231
181,832	0,00057
182,051	0,00604
182,271	-0,00111
182,49	0,00616
182,71	0,00208
182,929	0,02604
183,149	0,01894
183,368	0,03078
183,588	0,0237
183,807	0,03415
184,027	0,05222
184,246	0,04561
184,466	0,03618
184,685	0,03964
184,905	0,03754
185,124	0,04847
185,344	0,04737
185,563	0,05731
185,782	0,05549
186,002	0,05815
186,221	0,04644
186,44	0,04126
186,66	0,05559
186,879	0,07161
187,099	0,05876
187,318	0,05283
187,537	0,04955
187,756	0,04635
187,976	0,03468
188,195	0,03375
188,414	0,04392
188,634	0,05084
188,853	0,04139
189,072	0,0311
189,291	0,00785
189,511	0,03005
189,73	0,047
189,949	0,05083
190,168	0,04469
190,387	0,07163
190,607	0,07326
190,826	0,05871
191,045	0,05084
191,264	0,05155
191,483	0,03311
191,702	0,04311
191,921	0,04103
192,141	0,04005
192,36	0,02613
192,579	0,015
192,798	-0,00361
193,017	-0,01051
193,236	0,01086
193,455	0,02392
193,674	0,03642
193,893	0,04508
194,112	0,03366
194,331	0,02447
194,55	0,01644
194,769	0,02828
194,988	0,04545
195,207	0,05306
195,426	0,06077
195,645	0,04521
195,864	0,02959
196,083	0,02402
196,302	0,02519
196,521	0,03514
196,739	0,04164
196,958	0,03503
197,177	0,03723
197,396	0,03983
197,615	0,04108
197,834	0,02056
198,053	0,01984
198,271	0,01748
198,49	0,03143
198,709	0,04258
198,928	0,03818
199,147	0,03177
199,365	0,05267
199,584	0,05177
199,803	0,03698
200,022	0,03987
200,24	0,04815
200,459	0,04906
200,678	0,06251
200,897	0,04874
201,115	0,03943
201,334	0,05557
201,553	0,05536
201,771	0,03453
201,99	0,02633
202,209	0,03665
202,427	0,0185
202,646	0,02744
202,864	0,01861
203,083	0,00158
203,302	0,00107
203,52	0,01428
203,739	0,0069
203,957	0,01727
204,176	0,02688
204,394	0,03739
204,613	0,0382
204,831	0,0527
205,05	0,04779
205,268	0,06685
205,487	0,0708
205,705	0,06183
205,924	0,05792
206,142	0,0536
206,361	0,04681
206,579	0,04688
206,798	0,04516
207,016	0,04277
207,234	0,03669
207,453	0,04927
207,671	0,05472
207,89	0,06437
208,108	0,07201
208,326	0,05618
208,545	0,05026
208,763	0,04691
208,981	0,04052
209,2	0,02122
209,418	0,01703
209,636	0,0135
209,855	0,00803
210,073	-0,00213
210,291	-0,01255
210,509	-0,01983
210,728	-0,01465
210,946	-0,00616
211,164	-0,00543
211,382	0,0037
211,6	0,02962
211,819	0,02492
212,037	0,02946
212,255	0,01583
212,473	0,0072
212,691	0,00117
212,909	0,01192
213,128	0,00934
213,346	0,01157
213,564	0,01411
213,782	0,00115
214	0,00159
214,218	0,01721
214,436	0,0168
214,654	0,02334
214,872	0,02494
215,09	0,03073
215,308	0,02922
215,526	0,04247
215,744	0,04261
215,962	0,03533
216,18	0,04349
216,398	0,04028
216,616	0,02277
216,834	0,02422
217,052	0,02107
217,27	-0,00125
217,488	0,00404
217,706	0,00155
217,924	0,00006
218,142	0,00485
218,36	0,01241
218,578	0,02461
218,795	0,0048
219,013	0,01545
219,231	0,00655
219,449	0,0082
219,667	0,01681
219,885	0,01611
220,102	0,01994
220,32	0,01493
220,538	0,0093
220,756	0,00149
220,973	0,00197
221,191	0,01861
221,409	0,01144
221,627	0,01843
221,844	0,01617
222,062	0,02615
222,28	0,02882
222,497	0,01715
222,715	0,02565
222,933	0,01535
223,15	0,00776
223,368	0,00585
223,586	0,01835
223,803	0,0312
224,021	0,03465
224,239	0,04266
224,456	0,03246
224,674	0,03238
224,891	0,04101
225,109	0,03963
225,326	0,03839
225,544	0,04456
225,762	0,02897
225,979	0,01868
226,197	0,0135
226,414	0,00707
226,632	-0,00277
226,849	0,01015
227,066	0,00673
227,284	0,00398
227,501	0,00283
227,719	0,02047
227,936	0,02695
228,154	0,03745
228,371	0,02708
228,588	0,02475
228,806	0,03015
229,023	0,03757
229,241	0,04403
229,458	0,04998
229,675	0,05159
229,893	0,04241
230,11	0,04164
230,327	0,03474
230,545	0,03743
230,762	0,0427
230,979	0,05607
231,196	0,05309
231,414	0,0469
231,631	0,03181
231,848	0,02931
232,065	0,02697
232,283	0,02428
232,5	0,02137
232,717	0,02606
232,934	0,01239
233,151	0,01276
233,368	-0,00037
233,586	-0,00318
233,803	0,00557
234,02	0,03433
234,237	0,02907
234,454	0,03306
234,671	0,04992
234,888	0,03744
235,105	0,03211
235,322	0,03923
235,54	0,04114
235,757	0,05102
235,974	0,05573
236,191	0,05275
236,408	0,03249
236,625	0,04091
236,842	0,03506
237,059	0,03207
237,276	0,03101
237,493	0,04099
237,71	0,04956
237,926	0,03874
238,143	0,02729
238,36	0,02728
238,577	0,02265
238,794	0,02266
239,011	0,01473
239,228	0,02773
239,445	0,02129
239,662	0,04228
239,878	0,05043
240,095	0,04873
240,312	0,06667
240,529	0,08264
240,746	0,08682
240,963	0,08967
241,179	0,09642
241,396	0,10492
241,613	0,09021
241,83	0,08493
242,046	0,07221
242,263	0,05856
242,48	0,04879
242,697	0,03511
242,913	0,02964
243,13	0,00921
243,347	0,01382
243,563	0,00938
243,78	-0,00081
243,997	0,00369
244,213	0,00993
244,43	0,01822
244,646	0,02565
244,863	0,03283
245,08	0,04193
245,296	0,03314
245,513	0,04135
245,729	0,0462
245,946	0,05172
246,162	0,04589
246,379	0,046
246,595	0,04397
246,812	0,04216
247,028	0,04032
247,245	0,04584
247,461	0,03586
247,678	0,03325
247,894	0,04601
248,111	0,0357
248,327	0,03767
248,544	0,04659
248,76	0,05099
248,976	0,06012
249,193	0,05373
249,409	0,05939
249,626	0,04751
249,842	0,04751
250,058	0,05133
250,275	0,04084
250,491	0,0442
250,707	0,03649
250,924	0,04469
251,14	0,05337
251,356	0,04675
251,572	0,04634
251,789	0,03973
252,005	0,04891
252,221	0,05608
252,437	0,04982
252,654	0,05322
252,87	0,03763
253,086	0,04833
253,302	0,03668
253,518	0,02548
253,735	0,0133
253,951	0,01385
254,167	0,006
254,383	-0,00714
254,599	-0,01435
254,815	-0,00749
255,031	-0,02204
255,247	-0,0188
255,463	-0,02557
255,68	-0,00526
255,896	-0,0094
256,112	-0,00371
256,328	-0,00167
256,544	0,00644
256,76	0,01578
256,976	0,02082
257,192	0,02336
257,408	0,04122
257,624	0,04681
257,84	0,0431
258,056	0,03565
258,272	0,04316
258,487	0,03811
258,703	0,03608
258,919	0,04187
259,135	0,04489
259,351	0,04873
259,567	0,05381
259,783	0,05325
259,999	0,05965
260,215	0,06313
260,43	0,04766
260,646	0,04923
260,862	0,073
261,078	0,06876
261,294	0,05356
261,509	0,06095
261,725	0,0611
261,941	0,05739
262,157	0,05891
262,372	0,05239
262,588	0,0466
262,804	0,05519
263,019	0,05508
263,235	0,05235
263,451	0,06866
263,667	0,07266
263,882	0,06324
264,098	0,05657
264,313	0,05779
264,529	0,04685
264,745	0,05367
264,96	0,0481
265,176	0,0479
265,391	0,04612
265,607	0,04342
265,823	0,03105
266,038	0,02604
266,254	0,02786
266,469	0,03809
266,685	0,03457
266,9	0,03735
267,116	0,03707
267,331	0,04668
267,547	0,04582
267,762	0,04061
267,978	0,03373
268,193	0,03373
268,408	0,04021
268,624	0,04643
268,839	0,04348
269,055	0,03927
269,27	0,04401
269,485	0,03698
269,701	0,04017
269,916	0,03462
270,132	0,04216
270,347	0,04705
270,562	0,04754
270,777	0,05903
270,993	0,05349
271,208	0,04555
271,423	0,05579
271,639	0,06107
271,854	0,05968
272,069	0,05478
272,284	0,05555
272,5	0,04812
272,715	0,04847
272,93	0,03709
273,145	0,01524
273,36	0,01927
273,576	0,02234
273,791	0,00796
274,006	-0,0042
274,221	-0,00393
274,436	-0,00468
274,651	0,00044
274,866	0,00811
275,081	0,01391
275,296	0,01609
275,512	0,02506
275,727	0,02304
275,942	0,01678
276,157	0,01729
276,372	0,02953
276,587	0,0426
276,802	0,05282
277,017	0,04469
277,232	0,0493
277,447	0,04067
277,662	0,04038
277,877	0,0393
278,092	0,038
278,306	0,05242
278,521	0,05422
278,736	0,05104
278,951	0,03856
279,166	0,0259
279,381	0,02841
279,596	0,0178
279,811	0,02197
280,025	0,02235
280,24	0,02892
280,455	0,03329
280,67	0,02524
280,885	0,02656
281,099	0,02115
281,314	0,02326
281,529	0,03582
281,744	0,04628
281,959	0,04856
282,173	0,04997
282,388	0,06763
282,603	0,05455
282,817	0,04715
283,032	0,0514
283,247	0,04715
283,461	0,04513
283,676	0,03479
283,891	0,02504
284,105	0,01826
284,32	0,02252
284,535	0,02064
284,749	0,0202
284,964	0,03201
285,178	0,03819
285,393	0,0425
285,607	0,05486
285,822	0,05665
286,036	0,0785
286,251	0,07805
286,465	0,08383
286,68	0,08449
286,894	0,07918
287,109	0,07172
287,323	0,06074
287,538	0,05323
287,752	0,03884
287,967	0,03294
288,181	0,03404
288,396	0,0314
288,61	0,04463
288,824	0,04528
289,039	0,04223
289,253	0,04669
289,467	0,04783
289,682	0,0501
289,896	0,0573
290,11	0,06203
290,325	0,05946
290,539	0,05589
290,753	0,04742
290,968	0,03306
291,182	0,01807
291,396	0,01903
291,61	0,0189
291,825	0,02046
292,039	0,0251
292,253	0,01856
292,467	0,01702
292,681	0,02399
292,896	0,03135
293,11	0,0289
293,324	0,04035
293,538	0,05327
293,752	0,05501
293,966	0,05344
294,18	0,04658
294,394	0,03528
294,608	0,03595
294,823	0,04277
295,037	0,03506
295,251	0,03868
295,465	0,04516
295,679	0,0371
295,893	0,03259
296,107	0,02688
296,321	0,02995
296,535	0,02933
296,749	0,03217
296,963	0,02304
297,177	0,01653
297,391	0,02095
297,604	0,00713
297,818	0,00186
298,032	-0,00113
298,246	-0,00953
298,46	-0,0061
298,674	0,00087
298,888	0,00802
299,102	0,01291
299,315	0,0278
299,529	0,03234
299,743	0,03515
299,957	0,04118
300,171	0,04141
300,385	0,04372
300,598	0,05686
300,812	0,057
301,026	0,04329
301,24	0,04738
301,453	0,04085
301,667	0,03608
301,881	0,04056
302,094	0,03541
302,308	0,03518
302,522	0,03981
302,735	0,04011
302,949	0,0436
303,163	0,04439
303,376	0,04225
303,59	0,04165
303,803	0,04306
304,017	0,04421
304,231	0,04294
304,444	0,04433
304,658	0,04433
304,871	0,0524
305,085	0,04972
305,298	0,03873
305,512	0,03752
305,725	0,04009
305,939	0,03728
306,152	0,03504
306,366	0,02915
306,579	0,02927
306,793	0,03341
307,006	0,03816
307,22	0,02298
307,433	0,02302
307,646	0,02336
307,86	0,02364
308,073	0,03377
308,286	0,02225
308,5	0,0319
308,713	0,02743
308,926	0,02963
309,14	0,02082
309,353	0,01288
309,566	0,01547
309,78	0,01701
309,993	0,02159
310,206	0,01753
310,419	0,0065
310,633	0,00946
310,846	0,01928
311,059	0,02772
311,272	0,02629
311,486	0,02983
311,699	0,03061
311,912	0,03223
312,125	0,03843
312,338	0,03504
312,551	0,03534
312,764	0,05104
312,978	0,06757
313,191	0,05354
313,404	0,05322
313,617	0,04236
313,83	0,04838
314,043	0,05731
314,256	0,05893
314,469	0,04751
314,682	0,04925
314,895	0,05331
315,108	0,04741
315,321	0,03797
315,534	0,04852
315,747	0,05006
315,96	0,05664
316,173	0,05211
316,386	0,03631
316,599	0,03816
316,812	0,04547
317,025	0,05189
317,237	0,05122
317,45	0,04688
317,663	0,04725
317,876	0,03991
318,089	0,03857
318,302	0,0315
318,515	0,02896
318,727	0,03346
318,94	0,03671
319,153	0,03559
319,366	0,03212
319,578	0,02668
319,791	0,03403
320,004	0,02712
320,217	0,02894
320,429	0,03671
320,642	0,04739
320,855	0,0414
321,067	0,04063
321,28	0,02981
321,493	0,02633
321,705	0,02285
321,918	0,03339
322,131	0,02748
322,343	0,02941
322,556	0,03191
322,768	0,01896
322,981	0,00865
323,194	0,00822
323,406	0,00883
323,619	0,00971
323,831	0,02122
324,044	0,02888
324,256	0,02523
324,469	0,01531
324,681	0,02086
324,894	0,01205
325,106	0,02688
325,319	0,02739
325,531	0,03912
325,743	0,03796
325,956	0,04312
326,168	0,0353
326,381	0,02766
326,593	0,02262
326,805	0,0349
327,018	0,03311
327,23	0,0295
327,442	0,0197
327,655	0,0127
327,867	0,00891
328,079	0,00826
328,292	0,00682
328,504	0,00811
328,716	0,00457
328,928	0,01598
329,141	0,01785
329,353	0,01338
329,565	0,02556
329,777	0,03302
329,99	0,0422
330,202	0,046
330,414	0,04195
330,626	0,04584
330,838	0,04572
331,05	0,04648
331,263	0,03799
331,475	0,03635
331,687	0,03481
331,899	0,03645
332,111	0,02959
332,323	0,0293
332,535	0,03097
332,747	0,04519
332,959	0,04173
333,171	0,04223
333,383	0,03755
333,595	0,03792
333,807	0,03295
334,019	0,0325
334,231	0,02573
334,443	0,01912
334,655	0,01779
334,867	0,01451
335,079	0,0071
335,291	0,00139
335,503	0,00347
335,714	0,00378
335,926	0,00577
336,138	0,00697
336,35	0,01163
336,562	0,01985
336,774	0,02152
336,986	0,02388
337,197	0,02114
337,409	0,02199
337,621	0,01819
337,833	0,01736
338,044	0,03031
338,256	0,0258
338,468	0,02663
338,68	0,03264
338,891	0,02802
339,103	0,02255
339,315	0,01401
339,526	0,01356
339,738	0,00261
339,95	0,00563
340,161	0,01229
340,373	-0,00156
340,585	-0,00379
340,796	-0,00493
341,008	-0,003
341,219	0,00348
341,431	0,01569
341,642	0,03262
341,854	0,03876
342,065	0,05329
342,277	0,06125
342,489	0,05478
342,7	0,06614
342,912	0,07079
343,123	0,06836
343,334	0,06385
343,546	0,0538
343,757	0,05551
343,969	0,03832
344,18	0,03754
344,392	0,03034
344,603	0,03717
344,814	0,03707
345,026	0,03565
345,237	0,03792
345,448	0,03783
345,66	0,04029
345,871	0,04467
346,082	0,05046
346,294	0,05185
346,505	0,04329
346,716	0,05167
346,927	0,05003
347,139	0,05191
347,35	0,05084
347,561	0,04343
347,772	0,04361
347,984	0,04345
348,195	0,04682
348,406	0,03043
348,617	0,03736
348,828	0,04411
349,039	0,03844
349,251	0,03281
349,462	0,02892
349,673	0,0255
349,884	0,03057
350,095	0,03032
350,306	0,02818
350,517	0,02623
350,728	0,03679
350,939	0,04352
351,15	0,04176
351,361	0,04276
351,572	0,05183
351,783	0,04876
351,994	0,05302
352,205	0,0557
352,416	0,05862
352,627	0,06152
352,838	0,06444
353,049	0,06199
353,26	0,05172
353,471	0,05004
353,682	0,05138
353,893	0,04525
354,103	0,05103
354,314	0,04899
354,525	0,04674
354,736	0,04637
354,947	0,04473
355,157	0,03829
355,368	0,03851
355,579	0,03457
355,79	0,03668
356,001	0,03001
356,211	0,03182
356,422	0,02272
356,633	0,02773
356,843	0,0254
357,054	0,02322
357,265	0,02752
357,476	0,02895
357,686	0,02532
357,897	0,03396
358,107	0,03405
358,318	0,03478
358,529	0,02587
358,739	0,04184
358,95	0,04119
359,16	0,04572
359,371	0,04374
359,582	0,03285
359,792	0,03798
360,003	0,03869
360,213	0,03271
360,424	0,03351
360,634	0,0425
360,845	0,04512
361,055	0,03715
361,266	0,02976
361,476	0,03208
361,686	0,03361
361,897	0,04059
362,107	0,03993
362,318	0,04095
362,528	0,04051
362,738	0,03688
362,949	0,03156
363,159	0,03354
363,369	0,03292
363,58	0,03428
363,79	0,02767
364	0,02747
364,211	0,02604
364,421	0,02183
364,631	0,03041
364,842	0,03332
365,052	0,0341
365,262	0,03444
365,472	0,03716
365,682	0,03424
365,893	0,03429
366,103	0,03631
366,313	0,03682
366,523	0,04199
366,733	0,03773
366,943	0,03278
367,154	0,03195
367,364	0,04232
367,574	0,04537
367,784	0,04505
367,994	0,04807
368,204	0,05231
368,414	0,05375
368,624	0,05245
368,834	0,04642
369,044	0,04847
369,254	0,04704
369,464	0,04738
369,674	0,04391
369,884	0,03861
370,094	0,037
370,304	0,03049
370,514	0,02718
370,724	0,02556
370,934	0,02612
371,144	0,02179
371,353	0,02581
371,563	0,02723
371,773	0,02926
371,983	0,02727
372,193	0,031
372,403	0,03409
372,612	0,0369
372,822	0,03912
373,032	0,03399
373,242	0,03957
373,452	0,04292
373,661	0,04392
373,871	0,04283
374,081	0,0401
374,29	0,04088
374,5	0,0384
374,71	0,03062
374,92	0,03006
375,129	0,02892
375,339	0,03423
375,549	0,02778
375,758	0,02675
375,968	0,02144
376,177	0,02138
376,387	0,01739
376,597	0,01713
376,806	0,0171
377,016	0,02125
377,225	0,02652
377,435	0,02499
377,644	0,02537
377,854	0,02624
378,063	0,0308
378,273	0,03715
378,482	0,03827
378,692	0,04369
378,901	0,03993
379,111	0,04206
379,32	0,04398
379,529	0,04009
379,739	0,04169
379,948	0,03797
380,158	0,03943
380,367	0,0379
380,576	0,03274
380,786	0,02703
380,995	0,02736
381,204	0,02957
381,414	0,03225
381,623	0,02854
381,832	0,02856
382,041	0,02835
382,251	0,03343
382,46	0,03292
382,669	0,03068
382,878	0,03496
383,088	0,0347
383,297	0,03451
383,506	0,03349
383,715	0,02691
383,924	0,02443
384,133	0,02502
384,342	0,02644
384,552	0,02397
384,761	0,02508
384,97	0,02617
385,179	0,02519
385,388	0,02595
385,597	0,02449
385,806	0,02569
386,015	0,02871
386,224	0,03307
386,433	0,03232
386,642	0,02921
386,851	0,02828
387,06	0,02729
387,269	0,02493
387,478	0,02439
387,687	0,02791
387,896	0,02813
388,105	0,02554
388,314	0,02416
388,523	0,02396
388,731	0,02681
388,94	0,02735
389,149	0,02785
389,358	0,03058
389,567	0,03451
389,776	0,03287
389,984	0,03096
390,193	0,03261
390,402	0,03041
390,611	0,03085
390,819	0,02587
391,028	0,02267
391,237	0,02401
391,446	0,02144
391,654	0,01882
391,863	0,01441
392,072	0,01233
392,28	0,01156
392,489	0,01037
392,698	0,00994
392,906	0,00817
393,115	0,01088
393,324	0,01351
393,532	0,01225
393,741	0,00981
393,949	0,00928
394,158	0,00964
394,366	0,01081
394,575	0,01158
394,783	0,00864
394,992	0,01086
395,2	0,00873
395,409	0,00989
395,617	0,00614
395,826	0,00656
396,034	0,00764
396,243	0,00817
396,451	0,01098
396,66	0,01275
396,868	0,01044
397,076	0,01237
397,285	0,0101
397,493	0,01336
397,701	0,01274
397,91	0,01188
398,118	0,01183
398,326	0,01362
398,535	0,01128
398,743	0,00934
398,951	0,0079
399,159	0,00834
399,368	0,00842
399,576	0,01034
399,784	0,0108
399,992	0,01019
400,201	0,01241
400,409	0,00988
400,617	0,01118
400,825	0,01476
401,033	0,01572
401,241	0,01514
401,45	0,0176
401,658	0,01923
401,866	0,02163
402,074	0,01846
402,282	0,01981
402,49	0,02004
402,698	0,0241
402,906	0,02093
403,114	0,0193
403,322	0,0177
403,53	0,01761
403,738	0,01656
403,946	0,0129
404,154	0,0124
404,362	0,01635
404,57	0,01507
404,778	0,01416
404,986	0,01277
405,194	0,01458
405,402	0,01627
405,609	0,01662
405,817	0,01537
406,025	0,01664
406,233	0,01926
406,441	0,01922
406,649	0,01757
406,856	0,01708
407,064	0,01781
407,272	0,01622
407,48	0,01531
407,687	0,01445
407,895	0,01462
408,103	0,01709
408,311	0,01602
408,518	0,01546
408,726	0,01532
408,934	0,01688
409,141	0,0184
409,349	0,01554
409,557	0,01724
409,764	0,01759
409,972	0,01728
410,18	0,01659
410,387	0,01635
410,595	0,01554
410,802	0,01488
411,01	0,01359
411,217	0,01043
411,425	0,00917
411,632	0,0111
411,84	0,01019
412,047	0,00891
412,255	0,00733
412,462	0,00868
412,67	0,00806
412,877	0,00828
413,085	0,00741
413,292	0,00774
413,499	0,01111
413,707	0,01141
413,914	0,0111
414,122	0,01032
414,329	0,01096
414,536	0,01062
414,744	0,00976
414,951	0,01012
415,158	0,01022
415,366	0,01008
415,573	0,01024
415,78	0,00913
415,987	0,00737
416,195	0,00932
416,402	0,00885
416,609	0,01211
416,816	0,01212
417,023	0,01291
417,231	0,01381
417,438	0,01407
417,645	0,01379
417,852	0,01288
418,059	0,01192
418,266	0,01299
418,473	0,01142
418,68	0,01286
418,888	0,01008
419,095	0,01159
419,302	0,01073
419,509	0,00839
419,716	0,00849
419,923	0,0106
420,13	0,01166
420,337	0,0128
420,544	0,01349
420,751	0,01392
420,958	0,01396
421,165	0,01518
421,371	0,01422
421,578	0,01381
421,785	0,01442
421,992	0,01412
422,199	0,01402
422,406	0,01399
422,613	0,0133
422,82	0,01464
423,026	0,01415
423,233	0,01422
423,44	0,01254
423,647	0,01331
423,854	0,01354
424,06	0,01244
424,267	0,01237
424,474	0,01204
424,681	0,01204
424,887	0,01077
425,094	0,00856
425,301	0,00994
425,507	0,01007
425,714	0,01016
425,921	0,01068
426,127	0,01015
426,334	0,01193
426,54	0,01207
426,747	0,01263
426,954	0,0108
427,16	0,01228
427,367	0,01197
427,573	0,01126
427,78	0,01061
427,986	0,01138
428,193	0,00963
428,399	0,01081
428,606	0,01037
428,812	0,01035
429,019	0,00949
429,225	0,01095
429,432	0,01043
429,638	0,0111
429,845	0,00947
430,051	0,01015
430,257	0,00852
430,464	0,00856
430,67	0,0088
430,876	0,00841
431,083	0,00873
431,289	0,00891
431,495	0,00941
431,702	0,00926
431,908	0,00806
432,114	0,00854
432,32	0,00836
432,527	0,01012
432,733	0,00961
432,939	0,00844
433,145	0,00896
433,351	0,00938
433,558	0,01099
433,764	0,0109
433,97	0,0102
434,176	0,0115
434,382	0,01224
434,588	0,01099
434,794	0,00947
435,001	0,01136
435,207	0,01136
435,413	0,01059
435,619	0,00932
435,825	0,00794
436,031	0,0083
436,237	0,00941
436,443	0,00955
436,649	0,00944
436,855	0,01002
437,061	0,01161
437,267	0,01178
437,473	0,01208
437,679	0,01395
437,884	0,01443
438,09	0,01399
438,296	0,01272
438,502	0,01141
438,708	0,01097
438,914	0,01095
439,12	0,01135
439,325	0,01112
439,531	0,01097
439,737	0,0111
439,943	0,00904
440,149	0,00922
440,354	0,00978
440,56	0,01002
440,766	0,01011
440,972	0,0107
441,177	0,01145
441,383	0,01079
441,589	0,01075
441,794	0,00932
442	0,00958
442,206	0,01027
442,411	0,01017
442,617	0,00986
442,822	0,01096
443,028	0,01144
443,234	0,01222
443,439	0,01126
443,645	0,01184
443,85	0,01266
444,056	0,01346
444,261	0,01369
444,467	0,01449
444,672	0,01493
444,878	0,01523
445,083	0,01409
445,289	0,01463
445,494	0,01368
445,699	0,01503
445,905	0,01446
446,11	0,01393
446,316	0,01407
446,521	0,01392
446,726	0,01351
446,932	0,0131
447,137	0,01254
447,342	0,0128
447,548	0,01265
447,753	0,01292
447,958	0,01216
448,164	0,01226
448,369	0,01193
448,574	0,01163
448,779	0,01188
448,984	0,01156
449,19	0,01275
449,395	0,01303
449,6	0,01341
449,805	0,01314
450,01	0,01271
450,215	0,01297
450,421	0,01431
450,626	0,01488
450,831	0,01498
451,036	0,01399
451,241	0,01518
451,446	0,01392
451,651	0,01473
451,856	0,01486
452,061	0,01511
452,266	0,01559
452,471	0,01547
452,676	0,01507
452,881	0,01496
453,086	0,01603
453,291	0,0171
453,496	0,01629
453,701	0,0166
453,906	0,01615
454,111	0,01589
454,316	0,01641
454,52	0,01612
454,725	0,01597
454,93	0,01618
455,135	0,01632
455,34	0,01556
455,545	0,0159
455,749	0,01627
455,954	0,01639
456,159	0,01629
456,364	0,01715
456,568	0,01649
456,773	0,01673
456,978	0,01749
457,182	0,01797
457,387	0,01774
457,592	0,01837
457,796	0,01766
458,001	0,01775
458,206	0,01772
458,41	0,01826
458,615	0,01738
458,82	0,01843
459,024	0,01917
459,229	0,0191
459,433	0,01897
459,638	0,01924
459,842	0,01966
460,047	0,01969
460,251	0,01947
460,456	0,01948
460,66	0,01972
460,865	0,02012
461,069	0,02002
461,274	0,02009
461,478	0,01986
461,682	0,01968
461,887	0,02033
462,091	0,0201
462,296	0,02063
462,5	0,02159
462,704	0,02215
462,909	0,02182
463,113	0,02202
463,317	0,02211
463,522	0,02234
463,726	0,02279
463,93	0,02297
464,134	0,02283
464,339	0,02306
464,543	0,0229
464,747	0,02251
464,951	0,02354
465,155	0,02377
465,36	0,0247
465,564	0,02469
465,768	0,02404
465,972	0,02451
466,176	0,02492
466,38	0,02545
466,584	0,02549
466,788	0,02605
466,993	0,02605
467,197	0,02522
467,401	0,02583
467,605	0,02505
467,809	0,02557
468,013	0,02649
468,217	0,0263
468,421	0,02581
468,625	0,02577
468,829	0,02628
469,033	0,02624
469,236	0,02706
469,44	0,02685
469,644	0,02675
469,848	0,02692
470,052	0,02737
470,256	0,02652
470,46	0,02671
470,664	0,02757
470,867	0,02766
471,071	0,02741
471,275	0,02755
471,479	0,02746
471,683	0,02796
471,886	0,02861
472,09	0,02901
472,294	0,0288
472,497	0,02943
472,701	0,02983
472,905	0,02994
473,109	0,03049
473,312	0,03083
473,516	0,03171
473,719	0,03173
473,923	0,03219
474,127	0,03196
474,33	0,03199
474,534	0,03274
474,737	0,03338
474,941	0,03356
475,145	0,0335
475,348	0,03335
475,552	0,03361
475,755	0,0335
475,959	0,03422
476,162	0,03429
476,366	0,03481
476,569	0,03524
476,772	0,03481
476,976	0,03497
477,179	0,03502
477,383	0,03527
477,586	0,03531
477,789	0,03552
477,993	0,03578
478,196	0,03564
478,399	0,03603
478,603	0,03619
478,806	0,03639
479,009	0,03682
479,213	0,03672
479,416	0,0369
479,619	0,03778
479,822	0,03864
480,026	0,03917
480,229	0,03927
480,432	0,04002
480,635	0,0402
480,838	0,04061
481,041	0,04079
481,245	0,04081
481,448	0,04111
481,651	0,04161
481,854	0,04141
482,057	0,04103
482,26	0,0414
482,463	0,0418
482,666	0,04185
482,869	0,04231
483,072	0,04236
483,275	0,04269
483,478	0,04307
483,681	0,04376
483,884	0,04411
484,087	0,04453
484,29	0,04534
484,493	0,04549
484,696	0,04597
484,899	0,04641
485,102	0,04668
485,305	0,04666
485,508	0,04749
485,71	0,04803
485,913	0,04818
486,116	0,04833
486,319	0,04866
486,522	0,04898
486,725	0,04941
486,927	0,04962
487,13	0,04999
487,333	0,05014
487,536	0,0507
487,738	0,05078
487,941	0,05104
488,144	0,0514
488,346	0,05178
488,549	0,05192
488,752	0,05199
488,954	0,05224
489,157	0,05248
489,359	0,05267
489,562	0,05328
489,765	0,05377
489,967	0,05412
490,17	0,05477
490,372	0,05529
490,575	0,05568
490,777	0,05629
490,98	0,05676
491,182	0,05694
491,385	0,05748
491,587	0,05783
491,79	0,05822
491,992	0,0585
492,195	0,05881
492,397	0,0589
492,599	0,05911
492,802	0,05934
493,004	0,05993
493,207	0,0604
493,409	0,06104
493,611	0,06144
493,814	0,06187
494,016	0,06203
494,218	0,06251
494,42	0,06306
494,623	0,06358
494,825	0,06412
495,027	0,06449
495,229	0,06465
495,432	0,06492
495,634	0,06525
495,836	0,06559
496,038	0,06595
496,24	0,06646
496,442	0,06673
496,645	0,06703
496,847	0,06745
497,049	0,06761
497,251	0,06852
497,453	0,06898
497,655	0,06963
497,857	0,07046
498,059	0,07098
498,261	0,07128
498,463	0,07172
498,665	0,07246
498,867	0,07288
499,069	0,07343
499,271	0,07408
499,473	0,0743
499,675	0,07473
499,877	0,07508
500,079	0,07505
500,281	0,07564
500,482	0,07658
500,684	0,07727
500,886	0,0777
501,088	0,07824
501,29	0,07869
501,492	0,07929
501,693	0,07992
501,895	0,08067
502,097	0,08135
502,299	0,08189
502,5	0,08208
502,702	0,08242
502,904	0,0831
503,106	0,08383
503,307	0,08436
503,509	0,08495
503,711	0,08534
503,912	0,08605
504,114	0,08631
504,315	0,08659
504,517	0,08725
504,719	0,08811
504,92	0,08853
505,122	0,08899
505,323	0,08938
505,525	0,08978
505,726	0,0901
505,928	0,09065
506,129	0,09116
506,331	0,09184
506,532	0,09268
506,734	0,09323
506,935	0,09374
507,137	0,09441
507,338	0,09472
507,539	0,09525
507,741	0,09608
507,942	0,09685
508,143	0,0977
508,345	0,09827
508,546	0,09866
508,747	0,09917
508,949	0,10014
509,15	0,10042
509,351	0,10092
509,553	0,10162
509,754	0,1024
509,955	0,10291
510,156	0,10367
510,357	0,10416
510,559	0,10474
510,76	0,10549
510,961	0,1064
511,162	0,10665
511,363	0,10758
511,564	0,10807
511,766	0,10882
511,967	0,10953
512,168	0,11022
512,369	0,11086
512,57	0,11156
512,771	0,11244
512,972	0,11312
513,173	0,11375
513,374	0,11439
513,575	0,115
513,776	0,11603
513,977	0,11646
514,178	0,11699
514,379	0,11765
514,58	0,11823
514,781	0,11904
514,981	0,11959
515,182	0,1203
515,383	0,12068
515,584	0,12141
515,785	0,12211
515,986	0,1227
516,187	0,12371
516,387	0,12433
516,588	0,12506
516,789	0,12593
516,99	0,12653
517,19	0,12706
517,391	0,12792
517,592	0,1288
517,793	0,12964
517,993	0,13069
518,194	0,1316
518,395	0,13224
518,595	0,13288
518,796	0,13367
518,996	0,13446
519,197	0,13515
519,398	0,13592
519,598	0,13658
519,799	0,1372
519,999	0,13781
520,2	0,13837
520,4	0,13888
520,601	0,13971
520,801	0,14069
521,002	0,14151
521,202	0,14205
521,403	0,14281
521,603	0,1435
521,804	0,14409
522,004	0,14482
522,204	0,14554
522,405	0,14621
522,605	0,14687
522,806	0,1476
523,006	0,14822
523,206	0,14894
523,407	0,14976
523,607	0,1504
523,807	0,15124
524,007	0,15189
524,208	0,15274
524,408	0,15331
524,608	0,15414
524,808	0,15492
525,009	0,1555
525,209	0,15613
525,409	0,15673
525,609	0,15733
525,809	0,15821
526,009	0,15885
526,209	0,15963
526,41	0,16019
526,61	0,16133
526,81	0,16197
527,01	0,16263
527,21	0,16329
527,41	0,16417
527,61	0,16495
527,81	0,16556
528,01	0,16612
528,21	0,16672
528,41	0,16737
528,61	0,16821
528,81	0,16872
529,01	0,16904
529,21	0,16995
529,41	0,17057
529,609	0,17101
529,809	0,17158
530,009	0,1724
530,209	0,17303
530,409	0,17371
530,609	0,17454
530,808	0,17498
531,008	0,17565
531,208	0,17661
531,408	0,17727
531,608	0,17797
531,807	0,17857
532,007	0,17919
532,207	0,17955
532,406	0,18009
532,606	0,18083
532,806	0,18151
533,005	0,18221
533,205	0,18265
533,405	0,18315
533,604	0,18358
533,804	0,18419
534,003	0,18506
534,203	0,18567
534,403	0,18623
534,602	0,18687
534,802	0,18726
535,001	0,18781
535,201	0,18844
535,4	0,18891
535,6	0,18936
535,799	0,18985
535,998	0,19031
536,198	0,19074
536,397	0,19126
536,597	0,19199
536,796	0,1926
536,995	0,19319
537,195	0,19362
537,394	0,19395
537,594	0,19475
537,793	0,1954
537,992	0,19596
538,191	0,19649
538,391	0,19678
538,59	0,19723
538,789	0,19756
538,988	0,19776
539,188	0,1983
539,387	0,19894
539,586	0,19951
539,785	0,19974
539,984	0,20023
540,184	0,20059
540,383	0,20113
540,582	0,20174
540,781	0,20235
540,98	0,20301
541,179	0,20357
541,378	0,204
541,577	0,20431
541,776	0,20482
541,975	0,2055
542,174	0,20575
542,373	0,20615
542,572	0,20644
542,771	0,20688
542,97	0,20713
543,169	0,20747
543,368	0,20795
543,567	0,20826
543,766	0,20855
543,965	0,20887
544,164	0,20897
544,362	0,2096
544,561	0,20999
544,76	0,21037
544,959	0,21078
545,158	0,21107
545,356	0,21128
545,555	0,21164
545,754	0,21219
545,953	0,21252
546,151	0,21274
546,35	0,21307
546,549	0,21321
546,748	0,21361
546,946	0,21397
547,145	0,21413
547,344	0,2145
547,542	0,21472
547,741	0,21492
547,939	0,21501
548,138	0,21519
548,337	0,21555
548,535	0,21581
548,734	0,21594
548,932	0,21596
549,131	0,21604
549,329	0,21638
549,528	0,2166
549,726	0,21698
549,925	0,21721
550,123	0,21749
550,322	0,21774
550,52	0,21793
550,718	0,21825
550,917	0,21862
551,115	0,21883
551,313	0,2192
551,512	0,2194
551,71	0,21976
551,908	0,21993
552,107	0,22021
552,305	0,22046
552,503	0,22071
552,702	0,22097
552,9	0,22111
553,098	0,22124
553,296	0,22167
553,495	0,2219
553,693	0,222
553,891	0,22215
554,089	0,22244
554,287	0,22277
554,485	0,22295
554,683	0,22306
554,882	0,22328
555,08	0,22363
555,278	0,22391
555,476	0,22417
555,674	0,22426
555,872	0,22457
556,07	0,22482
556,268	0,22508
556,466	0,22512
556,664	0,22532
556,862	0,22572
557,06	0,22599
557,258	0,22607
557,456	0,22656
557,654	0,22682
557,851	0,22711
558,049	0,22725
558,247	0,22732
558,445	0,2277
558,643	0,22801
558,841	0,22837
559,039	0,22859
559,236	0,22887
559,434	0,22937
559,632	0,22952
559,83	0,2297
560,027	0,23017
560,225	0,23062
560,423	0,23112
560,62	0,23142
560,818	0,23166
561,016	0,23196
561,213	0,23234
561,411	0,23278
561,609	0,23305
561,806	0,23334
562,004	0,23371
562,202	0,23386
562,399	0,23416
562,597	0,23458
562,794	0,23488
562,992	0,23536
563,189	0,2357
563,387	0,23623
563,584	0,2366
563,782	0,23691
563,979	0,23723
564,177	0,23761
564,374	0,23813
564,571	0,2387
564,769	0,23895
564,966	0,23928
565,164	0,23968
565,361	0,24011
565,558	0,24038
565,756	0,24081
565,953	0,24126
566,15	0,24194
566,347	0,24259
566,545	0,24317
566,742	0,24365
566,939	0,2441
567,136	0,24459
567,334	0,24516
567,531	0,2456
567,728	0,24619
567,925	0,24677
568,122	0,24735
568,319	0,24774
568,517	0,24818
568,714	0,24863
568,911	0,24919
569,108	0,24991
569,305	0,25056
569,502	0,25108
569,699	0,25177
569,896	0,25231
570,093	0,25273
570,29	0,25341
570,487	0,2541
570,684	0,25482
570,881	0,25538
571,078	0,25599
571,275	0,25674
571,472	0,25737
571,669	0,258
571,866	0,25856
572,062	0,25922
572,259	0,25988
572,456	0,26037
572,653	0,26101
572,85	0,26152
573,047	0,26223
573,243	0,26285
573,44	0,26325
573,637	0,26391
573,834	0,26448
574,03	0,2654
574,227	0,26609
574,424	0,26709
574,62	0,2678
574,817	0,26847
575,014	0,26925
575,21	0,27003
575,407	0,27081
575,604	0,27148
575,8	0,27222
575,997	0,27314
576,193	0,2737
576,39	0,27456
576,586	0,27491
576,783	0,27566
576,979	0,27638
577,176	0,27705
577,372	0,27776
577,569	0,27829
577,765	0,2791
577,962	0,27987
578,158	0,28064
578,355	0,28124
578,551	0,28187
578,747	0,28269
578,944	0,28341
579,14	0,28411
579,336	0,28499
579,533	0,28557
579,729	0,28632
579,925	0,28682
580,122	0,2874
580,318	0,28778
580,514	0,28843
580,71	0,28894
580,906	0,28965
581,103	0,29041
581,299	0,29102
581,495	0,29133
581,691	0,29198
581,887	0,29279
582,084	0,29366
582,28	0,29439
582,476	0,29523
582,672	0,29587
582,868	0,29655
583,064	0,29695
583,26	0,2974
583,456	0,29792
583,652	0,29855
583,848	0,29916
584,044	0,29939
584,24	0,29986
584,436	0,30029
584,632	0,3006
584,828	0,30105
585,024	0,30137
585,22	0,30192
585,416	0,30232
585,611	0,30262
585,807	0,30301
586,003	0,30341
586,199	0,30381
586,395	0,30427
586,591	0,30445
586,786	0,30494
586,982	0,3052
587,178	0,3056
587,374	0,30564
587,569	0,3058
587,765	0,30609
587,961	0,30623
588,156	0,30616
588,352	0,30633
588,548	0,30632
588,743	0,3064
588,939	0,30625
589,135	0,30638
589,33	0,30648
589,526	0,30651
589,721	0,30671
589,917	0,30676
590,112	0,30677
590,308	0,30677
590,503	0,30679
590,699	0,30672
590,894	0,30668
591,09	0,30673
591,285	0,30644
591,481	0,30605
591,676	0,30603
591,872	0,30553
592,067	0,30503
592,262	0,30473
592,458	0,30456
592,653	0,30423
592,848	0,30368
593,044	0,30317
593,239	0,30259
593,434	0,30208
593,629	0,30184
593,825	0,30123
594,02	0,3008
594,215	0,30043
594,41	0,29994
594,606	0,29919
594,801	0,29836
594,996	0,2979
595,191	0,29744
595,386	0,2968
595,581	0,2961
595,777	0,29525
595,972	0,29449
596,167	0,29369
596,362	0,29287
596,557	0,29199
596,752	0,29122
596,947	0,29045
597,142	0,28954
597,337	0,28863
597,532	0,28763
597,727	0,28677
597,922	0,28571
598,117	0,28472
598,312	0,28377
598,507	0,28259
598,701	0,28138
598,896	0,28017
599,091	0,2791
599,286	0,27787
599,481	0,27649
599,676	0,27537
599,87	0,27421
600,065	0,27299
600,26	0,27181
600,455	0,27055
600,65	0,2694
600,844	0,2681
601,039	0,26672
601,234	0,26537
601,428	0,26404
601,623	0,26274
601,818	0,26148
602,012	0,26011
602,207	0,2588
602,402	0,25741
602,596	0,25581
602,791	0,25442
602,985	0,2531
603,18	0,25169
603,374	0,25018
603,569	0,2487
603,763	0,24726
603,958	0,24568
604,152	0,24404
604,347	0,24246
604,541	0,24077
604,736	0,23926
604,93	0,23748
605,125	0,2358
605,319	0,23422
605,513	0,23256
605,708	0,23096
605,902	0,22919
606,096	0,22738
606,291	0,22581
606,485	0,22406
606,679	0,22248
606,874	0,22081
607,068	0,21926
607,262	0,21758
607,456	0,21601
607,65	0,21439
607,845	0,21267
608,039	0,21111
608,233	0,20945
608,427	0,20765
608,621	0,20609
608,815	0,20433
609,01	0,20277
609,204	0,20099
609,398	0,19944
609,592	0,19764
609,786	0,19608
609,98	0,19452
610,174	0,19287
610,368	0,19139
610,562	0,18976
610,756	0,18807
610,95	0,1865
611,144	0,18476
611,338	0,18314
611,532	0,18129
611,726	0,17968
611,919	0,17796
612,113	0,17627
612,307	0,17458
612,501	0,17285
612,695	0,17117
612,889	0,1695
613,082	0,16782
613,276	0,16623
613,47	0,16467
613,664	0,16324
613,857	0,16145
614,051	0,15984
614,245	0,15819
614,439	0,15656
614,632	0,15497
614,826	0,15346
615,02	0,15183
615,213	0,1503
615,407	0,14884
615,6	0,14723
615,794	0,14546
615,988	0,14408
616,181	0,14244
616,375	0,14099
616,568	0,13943
616,762	0,13796
616,955	0,13644
617,149	0,13499
617,342	0,13346
617,536	0,13188
617,729	0,13041
617,923	0,12908
618,116	0,1276
618,309	0,12612
618,503	0,12463
618,696	0,12328
618,889	0,1219
619,083	0,12044
619,276	0,11902
619,469	0,11757
619,663	0,11628
619,856	0,11503
620,049	0,11367
620,242	0,11236
620,436	0,1111
620,629	0,10989
620,822	0,10861
621,015	0,10718
621,209	0,10603
621,402	0,10476
621,595	0,10354
621,788	0,10229
621,981	0,10098
622,174	0,09974
622,367	0,09858
622,56	0,09734
622,753	0,096
622,946	0,09474
623,139	0,09365
623,332	0,09246
623,525	0,09129
623,718	0,09013
623,911	0,08897
624,104	0,0879
624,297	0,08684
624,49	0,08585
624,683	0,08475
624,876	0,08376
625,069	0,08267
625,262	0,0816
625,454	0,0806
625,647	0,07966
625,84	0,07861
626,033	0,0776
626,226	0,0766
626,418	0,0756
626,611	0,07459
626,804	0,07356
626,997	0,07251
627,189	0,07166
627,382	0,07079
627,575	0,0699
627,767	0,06892
627,96	0,06808
628,153	0,06708
628,345	0,06621
628,538	0,06541
628,731	0,06456
628,923	0,06389
629,116	0,06317
629,308	0,06233
629,501	0,06149
629,693	0,0607
629,886	0,05993
630,078	0,05915
630,271	0,05856
630,463	0,05784
630,656	0,05708
630,848	0,05619
631,04	0,05546
631,233	0,05471
631,425	0,054
631,617	0,0532
631,81	0,05236
632,002	0,05166
632,194	0,05115
632,387	0,0504
632,579	0,04964
632,771	0,04887
632,964	0,04831
633,156	0,04751
633,348	0,04679
633,54	0,0462
633,732	0,0456
633,925	0,04502
634,117	0,04452
634,309	0,0438
634,501	0,04319
634,693	0,04262
634,885	0,04205
635,077	0,0415
635,269	0,04098
635,462	0,04045
635,654	0,03992
635,846	0,03945
636,038	0,03881
636,23	0,03812
636,422	0,03753
636,614	0,03696
636,806	0,03644
636,997	0,03601
637,189	0,03542
637,381	0,03492
637,573	0,03443
637,765	0,03396
637,957	0,03337
638,149	0,03301
638,341	0,03268
638,532	0,03218
638,724	0,03179
638,916	0,0314
639,108	0,0309
639,299	0,03053
639,491	0,03006
639,683	0,02975
639,875	0,02935
640,066	0,02909
640,258	0,02858
640,45	0,02816
640,641	0,02795
640,833	0,02755
641,025	0,02727
641,216	0,02692
641,408	0,02652
641,599	0,02625
641,791	0,02594
641,982	0,02552
642,174	0,02511
642,366	0,02485
642,557	0,02451
642,748	0,0239
642,94	0,02356
643,131	0,02302
643,323	0,02264
643,514	0,02231
643,706	0,02196
643,897	0,02157
644,088	0,02129
644,28	0,02101
644,471	0,0207
644,662	0,02044
644,854	0,02037
645,045	0,02013
645,236	0,01986
645,428	0,01959
645,619	0,01932
645,81	0,0191
646,001	0,01875
646,193	0,01853
646,384	0,01819
646,575	0,01791
646,766	0,01768
646,957	0,01732
647,148	0,01696
647,339	0,0168
647,531	0,0167
647,722	0,01652
647,913	0,01624
648,104	0,01609
648,295	0,01579
648,486	0,01561
648,677	0,01539
648,868	0,01506
649,059	0,01491
649,25	0,01483
649,441	0,01466
649,632	0,01425
649,823	0,01403
650,013	0,01388
650,204	0,01364
650,395	0,01331
650,586	0,01316
650,777	0,01303
650,968	0,01289
651,159	0,01268
651,349	0,01241
651,54	0,01213
651,731	0,01201
651,922	0,01186
652,112	0,0117
652,303	0,01157
652,494	0,01158
652,684	0,01139
652,875	0,01129
653,066	0,01119
653,256	0,01107
653,447	0,01087
653,638	0,01076
653,828	0,01065
654,019	0,01046
654,209	0,01026
654,4	0,01004
654,59	0,00985
654,781	0,00983
654,972	0,00963
655,162	0,00941
655,352	0,00923
655,543	0,00911
655,733	0,00898
655,924	0,00891
656,114	0,00877
656,305	0,00865
656,495	0,00857
656,685	0,00839
656,876	0,00824
657,066	0,00808
657,256	0,00808
657,447	0,00807
657,637	0,008
657,827	0,0079
658,017	0,00783
658,208	0,00772
658,398	0,00757
658,588	0,00751
658,778	0,00752
658,968	0,00732
659,159	0,00727
659,349	0,00708
659,539	0,0069
659,729	0,00686
659,919	0,00683
660,109	0,00664
660,299	0,00665
660,489	0,00672
660,679	0,00653
660,869	0,00629
661,059	0,00626
661,249	0,00614
661,439	0,00605
661,629	0,00586
661,819	0,0058
662,009	0,00567
662,199	0,00559
662,389	0,00546
662,579	0,00524
662,769	0,00518
662,959	0,00518
663,149	0,00516
663,338	0,00515
663,528	0,0052
663,718	0,00515
663,908	0,00498
664,097	0,00488
664,287	0,00481
664,477	0,00478
664,667	0,00473
664,856	0,00469
665,046	0,00465
665,236	0,00459
665,425	0,00453
665,615	0,00444
665,805	0,0045
665,994	0,00452
666,184	0,00453
666,373	0,00449
666,563	0,00446
666,753	0,00452
666,942	0,00442
667,132	0,00428
667,321	0,0041
667,511	0,00406
667,7	0,00396
667,889	0,00384
668,079	0,00384
668,268	0,00386
668,458	0,00379
668,647	0,0037
668,836	0,00354
669,026	0,00357
669,215	0,00356
669,404	0,00367
669,594	0,00355
669,783	0,00348
669,972	0,00345
670,162	0,00336
670,351	0,00319
670,54	0,0031
670,729	0,00302
670,919	0,00306
671,108	0,00301
671,297	0,00298
671,486	0,0029
671,675	0,00281
671,864	0,00281
672,053	0,00285
672,243	0,00283
672,432	0,00283
672,621	0,00284
672,81	0,00279
672,999	0,00271
673,188	0,0028
673,377	0,00281
673,566	0,00273
673,755	0,00272
673,944	0,00256
674,133	0,00237
674,322	0,00238
674,51	0,00244
674,699	0,00242
674,888	0,00239
675,077	0,00237
675,266	0,00222
675,455	0,00218
675,644	0,0021
675,832	0,00215
676,021	0,00224
676,21	0,00236
676,399	0,00217
676,587	0,00199
676,776	0,00194
676,965	0,00192
677,153	0,0019
677,342	0,00184
677,531	0,00182
677,719	0,0018
677,908	0,00175
678,097	0,00169
678,285	0,00164
678,474	0,00177
678,662	0,00181
678,851	0,00179
679,039	0,0017
679,228	0,00171
679,416	0,00171
679,605	0,00166
679,793	0,00172
679,982	0,00162
680,17	0,00162
680,359	0,00163
680,547	0,00152
680,736	0,00154
680,924	0,00164
681,112	0,00169
681,301	0,00164
681,489	0,00162
681,677	0,00164
681,866	0,0016
682,054	0,0016
682,242	0,00158
682,43	0,00165
682,619	0,00152
682,807	0,00139
682,995	0,00124
683,183	0,00114
683,371	0,00112
683,559	0,00109
683,748	0,00105
683,936	0,00107
684,124	0,00108
684,312	0,00103
684,5	0,00073
684,688	0,00092
684,876	0,00092
685,064	0,00089
685,252	0,00095
685,44	0,00088
685,628	0,0009
685,816	0,00089
686,004	0,00073
686,192	0,00057
686,38	0,0005
686,568	0,00062
686,756	0,00059
686,944	0,00055
687,131	0,00061
687,319	0,00067
687,507	0,00064
687,695	0,00057
687,883	0,00055
688,07	0,00061
688,258	0,00072
688,446	0,00068
688,634	0,00073
688,821	0,00058
689,009	0,0006
689,197	0,00055
689,384	0,00046
689,572	0,00043
689,76	0,00049
689,947	0,00048
690,135	0,00046
690,323	0,00048
690,51	0,0005
690,698	0,00045
690,885	0,00063
691,073	0,0006
691,26	0,00058
691,448	0,0006
691,635	0,00067
691,823	0,00071
692,01	0,00068
692,197	0,00053
692,385	0,00048
692,572	0,00054
692,76	0,00054
692,947	0,00044
693,134	0,00052
693,322	0,00051
693,509	0,00049
693,696	0,00041
693,884	0,00028
694,071	0,00031
694,258	0,00042
694,445	0,00047
694,633	0,00043
694,82	0,00029
695,007	0,00026
695,194	0,00018
695,381	0,00016
695,568	0,00009
695,756	0,00008
695,943	0,00005
696,13	-0,00002
696,317	-0,00006
696,504	-0,00006
696,691	-0,00012
696,878	-0,00006
697,065	-0,00013
697,252	-0,00004
697,439	0,00002
697,626	0,00001
697,813	0,00005
698	0,00005
698,187	0,00005
698,374	0,0001
698,561	0,00009
698,747	0,00007
698,934	-0,00001
699,121	0,00004
699,308	-0,00013
699,495	-0,00018
699,682	-0,00012
699,868	-0,00023
700,055	-0,00027
700,242	-0,00034
700,429	-0,00042
700,615	-0,00056
700,802	-0,00057
700,989	-0,00051
701,175	-0,0006
701,362	-0,0005
701,549	-0,00062
701,735	-0,00061
701,922	-0,00061
702,108	-0,00059
702,295	-0,00059
702,482	-0,00057
702,668	-0,00046
702,855	-0,00037
703,041	-0,00033
703,228	-0,00031
703,414	-0,00038
703,601	-0,00037
703,787	-0,00035
703,973	-0,00036
704,16	-0,00042
704,346	-0,00039
704,533	-0,00045
704,719	-0,00056
704,905	-0,00074
705,092	-0,00074
705,278	-0,00075
705,464	-0,00068
705,65	-0,00057
705,837	-0,00069
706,023	-0,00067
706,209	-0,00058
706,395	-0,00058
706,582	-0,00052
706,768	-0,00049
706,954	-0,00029
707,14	-0,00046
707,326	-0,00047
707,512	-0,00061
707,698	-0,00068
707,885	-0,0007
708,071	-0,00069
708,257	-0,00075
708,443	-0,00066
708,629	-0,00056
708,815	-0,00052
709,001	-0,00062
709,187	-0,0006
709,373	-0,00054
709,559	-0,00049
709,745	-0,00049
709,93	-0,00044
710,116	-0,0004
710,302	-0,00034
710,488	-0,0004
710,674	-0,00048
710,86	-0,00052
711,046	-0,00051
711,231	-0,00044
711,417	-0,00042
711,603	-0,00041
711,789	-0,00047
711,974	-0,00051
712,16	-0,0006
712,346	-0,00071
712,532	-0,00074
712,717	-0,00084
712,903	-0,0009
713,089	-0,00095
713,274	-0,00099
713,46	-0,00106
713,645	-0,00108
713,831	-0,00097
714,016	-0,00099
714,202	-0,00098
714,388	-0,00077
714,573	-0,00077
714,759	-0,00072
714,944	-0,00075
715,129	-0,00079
715,315	-0,00076
715,5	-0,00085
715,686	-0,00086
715,871	-0,00092
716,057	-0,00095
716,242	-0,00085
716,427	-0,00109
716,613	-0,00108
716,798	-0,00111
716,983	-0,00101
717,168	-0,00093
717,354	-0,0008
717,539	-0,00073
717,724	-0,00069
717,909	-0,00062
718,095	-0,00055
718,28	-0,00067
718,465	-0,00057
718,65	-0,00055
718,835	-0,00059
719,02	-0,00063
719,206	-0,00068
719,391	-0,00083
719,576	-0,00096
719,761	-0,00103
719,946	-0,00112
720,131	-0,00116
720,316	-0,00109
720,501	-0,00111
720,686	-0,0011
720,871	-0,00101
721,056	-0,00099
721,241	-0,00102
721,426	-0,00094
721,61	-0,00079
721,795	-0,00079
721,98	-0,00073
722,165	-0,00069
722,35	-0,00064
722,535	-0,00069
722,719	-0,00072
722,904	-0,00074
723,089	-0,00081
723,274	-0,00075
723,458	-0,00081
723,643	-0,00082
723,828	-0,00083
724,013	-0,00094
724,197	-0,00095
724,382	-0,00099
724,567	-0,001
724,751	-0,00103
724,936	-0,00111
725,12	-0,00104
725,305	-0,00101
725,489	-0,00092
725,674	-0,00092
725,859	-0,00085
726,043	-0,00078
726,228	-0,00079
726,412	-0,00083
726,596	-0,00086
726,781	-0,0008
726,965	-0,0007
727,15	-0,00061
727,334	-0,00068
727,518	-0,00091
727,703	-0,00092
727,887	-0,00104
728,072	-0,001
728,256	-0,001
728,44	-0,001
728,624	-0,00094
728,809	-0,00107
728,993	-0,00105
729,177	-0,00121
729,361	-0,00117
729,546	-0,00109
729,73	-0,00106
729,914	-0,00107
730,098	-0,00111
730,282	-0,00126
730,466	-0,00125
730,65	-0,00123
730,834	-0,00117
731,019	-0,00123
731,203	-0,0012
731,387	-0,00121
731,571	-0,00125
731,755	-0,0013
731,939	-0,00125
732,123	-0,00126
732,306	-0,00115
732,49	-0,00114
732,674	-0,00113
732,858	-0,00115
733,042	-0,00125
733,226	-0,0012
733,41	-0,00125
733,594	-0,00114
733,778	-0,00116
733,961	-0,00109
734,145	-0,0011
734,329	-0,00101
734,513	-0,00106
734,696	-0,00106
734,88	-0,00102
735,064	-0,00102
735,247	-0,00115
735,431	-0,00107
735,615	-0,00119
735,798	-0,00116
735,982	-0,00115
736,166	-0,00111
736,349	-0,0012
736,533	-0,00114
736,716	-0,00122
736,9	-0,00125
737,083	-0,0012
737,267	-0,00117
737,45	-0,00126
737,634	-0,00119
737,817	-0,00127
738,001	-0,00139
738,184	-0,0014
738,368	-0,0014
738,551	-0,00157
738,734	-0,00152
738,918	-0,0015
739,101	-0,00138
739,284	-0,00144
739,468	-0,00151
739,651	-0,00141
739,834	-0,00135
740,018	-0,0014
740,201	-0,00147
740,384	-0,00146
740,567	-0,00134
740,75	-0,00138
740,934	-0,0015
741,117	-0,00165
741,3	-0,00163
741,483	-0,00153
741,666	-0,00172
741,849	-0,00177
742,032	-0,00171
742,215	-0,00168
742,399	-0,00163
742,582	-0,00165
742,765	-0,00163
742,948	-0,00144
743,131	-0,00136
743,314	-0,00134
743,496	-0,00139
743,679	-0,00128
743,862	-0,00115
744,045	-0,00114
744,228	-0,00118
744,411	-0,00127
744,594	-0,00129
744,777	-0,00128
744,959	-0,00134
745,142	-0,00128
745,325	-0,00119
745,508	-0,00122
745,691	-0,00119
745,873	-0,00135
746,056	-0,00141
746,239	-0,0014
746,421	-0,00127
746,604	-0,00129
746,787	-0,00122
746,969	-0,00124
747,152	-0,00137
747,335	-0,00141
747,517	-0,00133
747,7	-0,0013
747,882	-0,00119
748,065	-0,00126
748,247	-0,00122
748,43	-0,00142
748,612	-0,00132
748,795	-0,00136
748,977	-0,00137
749,16	-0,00132
749,342	-0,00125
749,524	-0,00131
749,707	-0,00136
749,889	-0,00138
750,072	-0,00132
750,254	-0,0014
750,436	-0,00139
750,619	-0,00149
750,801	-0,00155
750,983	-0,00161
751,165	-0,00167
751,348	-0,00179
751,53	-0,0019
751,712	-0,00188
751,894	-0,00194
752,076	-0,00181
752,259	-0,00179
752,441	-0,00177
752,623	-0,00174
752,805	-0,00187
752,987	-0,00189
753,169	-0,00184
753,351	-0,00186
753,533	-0,00173
753,715	-0,0017
753,897	-0,00177
754,079	-0,0018
754,261	-0,00184
754,443	-0,00183
754,625	-0,00183
754,807	-0,0017
754,989	-0,00159
755,171	-0,00168
755,353	-0,00165
755,534	-0,00173
755,716	-0,00178
755,898	-0,00171
756,08	-0,00174
756,262	-0,00169
756,443	-0,00174
756,625	-0,00176
756,807	-0,00179
756,989	-0,00195
757,17	-0,00197
757,352	-0,00192
757,534	-0,00178
757,715	-0,00181
757,897	-0,00186
758,079	-0,0019
758,26	-0,0019
758,442	-0,00184
758,623	-0,00186
758,805	-0,00183
758,987	-0,00177
759,168	-0,00188
759,35	-0,00194
759,531	-0,00197
759,713	-0,00206
759,894	-0,00214
760,075	-0,00219
760,257	-0,00218
760,438	-0,00219
760,62	-0,00223
760,801	-0,00229
760,982	-0,00227
761,164	-0,00217
761,345	-0,00212
761,526	-0,00219
761,708	-0,00204
761,889	-0,002
762,07	-0,00201
762,251	-0,0019
762,433	-0,00193
762,614	-0,00185
762,795	-0,00174
762,976	-0,00179
763,157	-0,00175
763,338	-0,00184
763,52	-0,00186
763,701	-0,00196
763,882	-0,00194
764,063	-0,00182
764,244	-0,00195
764,425	-0,00189
764,606	-0,00198
764,787	-0,00206
764,968	-0,00203
765,149	-0,0021
765,33	-0,00203
765,511	-0,00203
765,692	-0,002
765,873	-0,00196
766,053	-0,00206
766,234	-0,00202
766,415	-0,00194
766,596	-0,00187
766,777	-0,00196
766,958	-0,00206
767,138	-0,00198
767,319	-0,00199
767,5	-0,00194
767,681	-0,00216
767,861	-0,00204
768,042	-0,00208
768,223	-0,00208
768,403	-0,00221
768,584	-0,00219
768,765	-0,00215
768,945	-0,00216
769,126	-0,00218
769,307	-0,00213
769,487	-0,00215
769,668	-0,00199
769,848	-0,00215
770,029	-0,00207
770,209	-0,00227
770,39	-0,00235
770,57	-0,00234
770,751	-0,00237
770,931	-0,00233
771,111	-0,00243
771,292	-0,00257
771,472	-0,00261
771,653	-0,00258
771,833	-0,00255
772,013	-0,00256
772,194	-0,00234
772,374	-0,00226
772,554	-0,00239
772,734	-0,00226
772,915	-0,0022
773,095	-0,00212
773,275	-0,00205
773,455	-0,00209
773,635	-0,00223
773,816	-0,00223
773,996	-0,00214
774,176	-0,00216
774,356	-0,00227
774,536	-0,00222
774,716	-0,0023
774,896	-0,00233
775,076	-0,00241
775,256	-0,00232
775,436	-0,00225
775,616	-0,00207
775,796	-0,00201
775,976	-0,00208
776,156	-0,00211
776,336	-0,00202
776,516	-0,00203
776,696	-0,00204
776,876	-0,002
777,056	-0,00196
777,235	-0,0021
777,415	-0,00207
777,595	-0,00221
777,775	-0,00229
777,955	-0,00241
778,134	-0,00241
778,314	-0,0024
778,494	-0,00239
778,674	-0,00233
778,853	-0,00229
779,033	-0,00226
779,213	-0,00227
779,392	-0,00234
779,572	-0,00225
779,751	-0,0023
779,931	-0,00222
780,111	-0,00226
780,29	-0,00231
780,47	-0,0023
780,649	-0,00246
780,829	-0,00259
781,008	-0,00258
781,188	-0,00247
781,367	-0,00239
781,546	-0,00243
781,726	-0,00236
781,905	-0,00246
782,085	-0,00253
782,264	-0,00259
782,443	-0,00252
782,623	-0,00252
782,802	-0,00246
782,981	-0,00253
783,161	-0,00274
783,34	-0,00282
783,519	-0,00271
783,698	-0,00266
783,878	-0,00255
784,057	-0,00256
784,236	-0,00242
784,415	-0,00235
784,594	-0,00218
784,773	-0,00221
784,952	-0,0021
785,132	-0,00199
785,311	-0,00176
785,49	-0,00199
785,669	-0,00204
785,848	-0,00208
786,027	-0,00198
786,206	-0,00199
786,385	-0,00218
786,564	-0,00226
786,743	-0,00223
786,922	-0,00225
787,1	-0,00219
787,279	-0,00241
787,458	-0,00225
787,637	-0,00218
787,816	-0,00211
787,995	-0,00224
788,174	-0,00227
788,352	-0,00219
788,531	-0,00213
788,71	-0,00214
788,889	-0,00223
789,067	-0,00235
789,246	-0,00242
789,425	-0,00236
789,603	-0,00249
789,782	-0,00263
789,961	-0,00249
790,139	-0,00242
790,318	-0,00252
790,496	-0,00257
790,675	-0,00245
790,853	-0,00243
791,032	-0,00235
791,211	-0,0022
791,389	-0,00233
791,568	-0,00213
791,746	-0,00199
791,924	-0,00204
792,103	-0,00212
792,281	-0,00217
792,46	-0,00216
792,638	-0,00225
792,816	-0,00221
792,995	-0,00212
793,173	-0,00214
793,351	-0,00221
793,53	-0,0023
793,708	-0,00228
793,886	-0,00229
794,064	-0,00223
794,243	-0,00205
794,421	-0,00207
794,599	-0,00207
794,777	-0,00209
794,955	-0,00224
795,133	-0,00229
795,312	-0,0023
795,49	-0,00233
795,668	-0,00238
795,846	-0,00226
796,024	-0,00223
796,202	-0,00225
796,38	-0,00231
796,558	-0,00252
796,736	-0,00264
796,914	-0,00258
797,092	-0,00269
797,27	-0,00271
797,448	-0,00269
797,626	-0,00278
797,803	-0,00293
797,981	-0,00313
798,159	-0,0032
798,337	-0,00318
798,515	-0,00309
798,693	-0,00294
798,87	-0,00303
799,048	-0,00293
799,226	-0,0029
799,404	-0,003
799,581	-0,00301
799,759	-0,00304
799,937	-0,00301
800,114	-0,00293
800,292	-0,00291
800,469	-0,00278
800,647	-0,00291
800,825	-0,00294
801,002	-0,00303
801,18	-0,0031
801,357	-0,00305
801,535	-0,00298
801,712	-0,00288
801,89	-0,00284
802,067	-0,00296
802,245	-0,00306
802,422	-0,00323
802,6	-0,0032
802,777	-0,00312
802,954	-0,00304
803,132	-0,00296
803,309	-0,00297
803,486	-0,00311
803,664	-0,0032
803,841	-0,00321
804,018	-0,00321
804,195	-0,00302
804,373	-0,00297
804,55	-0,00285
804,727	-0,00297
804,904	-0,00299
805,081	-0,00289
805,259	-0,00291
805,436	-0,00299
805,613	-0,00303
805,79	-0,00309
805,967	-0,0031
806,144	-0,00312
806,321	-0,00313
806,498	-0,00312
806,675	-0,0031
806,852	-0,00314
807,029	-0,00311
807,206	-0,00308
807,383	-0,00289
807,56	-0,00272
807,737	-0,00273
807,914	-0,0028
808,091	-0,00284
808,268	-0,00271
808,444	-0,00278
808,621	-0,00284
808,798	-0,00309
808,975	-0,00316
809,152	-0,00323
809,328	-0,00323
809,505	-0,00333
809,682	-0,00331
809,858	-0,00328
810,035	-0,00341
810,212	-0,00363
810,388	-0,00359
810,565	-0,00328
810,742	-0,00311
810,918	-0,00309
811,095	-0,00315
811,271	-0,00325
811,448	-0,00319
811,625	-0,00317
811,801	-0,00312
811,978	-0,00301
812,154	-0,00295
812,33	-0,00294
812,507	-0,00299
812,683	-0,00279
812,86	-0,00287
813,036	-0,00273
813,212	-0,00258
813,389	-0,00261
813,565	-0,0027
813,741	-0,00255
813,918	-0,00267
814,094	-0,00262
814,27	-0,00264
814,447	-0,00266
814,623	-0,00274
814,799	-0,00266
814,975	-0,00281
815,151	-0,00295
815,328	-0,00297
815,504	-0,00293
815,68	-0,00309
815,856	-0,00302
816,032	-0,00288
816,208	-0,00306
816,384	-0,0032
816,56	-0,00328
816,736	-0,0033
816,912	-0,00321
817,088	-0,0032
817,264	-0,0032
817,44	-0,00323
817,616	-0,00325
817,792	-0,00336
817,968	-0,00346
818,144	-0,00324
818,32	-0,00318
818,495	-0,00309
818,671	-0,00318
818,847	-0,00331
819,023	-0,00322
819,199	-0,00307
819,374	-0,00293
819,55	-0,00289
819,726	-0,0027
819,902	-0,00269
820,077	-0,00287
820,253	-0,00285
820,429	-0,00291
820,604	-0,00252
820,78	-0,00238
820,956	-0,00246
821,131	-0,00263
821,307	-0,00272
821,482	-0,00268
821,658	-0,00255
821,833	-0,0027
822,009	-0,00269
822,184	-0,00279
822,36	-0,00273
822,535	-0,003
822,711	-0,003
822,886	-0,00293
823,061	-0,00295
823,237	-0,00287
823,412	-0,00296
823,587	-0,00317
823,763	-0,00312
823,938	-0,00296
824,113	-0,00291
824,289	-0,00304
824,464	-0,00301
824,639	-0,00299
824,814	-0,00307
824,99	-0,00302
825,165	-0,00304
825,34	-0,00294
825,515	-0,00285
825,69	-0,00287
825,865	-0,00295
826,04	-0,00286
826,215	-0,00271
826,39	-0,00267
826,566	-0,00254
826,741	-0,00244
826,916	-0,0024
827,091	-0,00258
827,265	-0,00244
827,44	-0,00236
827,615	-0,00218
827,79	-0,0021
827,965	-0,00219
828,14	-0,00217
828,315	-0,00229
828,49	-0,00237
828,665	-0,00241
828,839	-0,00249
829,014	-0,00224
829,189	-0,0025
829,364	-0,00254
829,538	-0,00255
829,713	-0,00264
829,888	-0,00272
830,063	-0,00282
830,237	-0,00298
830,412	-0,00292
830,587	-0,00305
830,761	-0,00289
830,936	-0,00307
831,11	-0,00302
831,285	-0,00315
831,459	-0,00316
831,634	-0,00319
831,809	-0,00303
831,983	-0,0032
832,157	-0,003
832,332	-0,0031
832,506	-0,00285
832,681	-0,00298
832,855	-0,00287
833,03	-0,00292
833,204	-0,00293
833,378	-0,00308
833,553	-0,00319
833,727	-0,00317
833,901	-0,00291
834,076	-0,00292
834,25	-0,00305
834,424	-0,00315
834,598	-0,00296
834,773	-0,00292
834,947	-0,00276
835,121	-0,00277
835,295	-0,00268
835,469	-0,00265
835,643	-0,00288
835,817	-0,00296
835,991	-0,00312
836,166	-0,00305
836,34	-0,00297
836,514	-0,00313
836,688	-0,00304
836,862	-0,00308
837,036	-0,0031
837,21	-0,00303
837,384	-0,00288
837,557	-0,00261
837,731	-0,00258
837,905	-0,00238
838,079	-0,00236
838,253	-0,00262
838,427	-0,00263
838,601	-0,00299
838,774	-0,00319
838,948	-0,00318
839,122	-0,00332
839,296	-0,00318
839,469	-0,00316
839,643	-0,00323
839,817	-0,00344
839,991	-0,00354
840,164	-0,00346
840,338	-0,00349
840,512	-0,00335
840,685	-0,00312
840,859	-0,00301
841,032	-0,00298
841,206	-0,00318
841,379	-0,00326
841,553	-0,00308
841,726	-0,00269
841,9	-0,00245
842,073	-0,00231
842,247	-0,0023
842,42	-0,00238
842,594	-0,00254
842,767	-0,00265
842,94	-0,00267
843,114	-0,00248
843,287	-0,00245
843,46	-0,00263
843,634	-0,00304
843,807	-0,00311
843,98	-0,00307
844,154	-0,00299
844,327	-0,00286
844,5	-0,00276
844,673	-0,00269
844,846	-0,00265
845,02	-0,00272
845,193	-0,00287
845,366	-0,00276
845,539	-0,0027
845,712	-0,00267
845,885	-0,00289
846,058	-0,00286
846,231	-0,00297
846,404	-0,00298
846,577	-0,00295
846,75	-0,0028
846,923	-0,00287
847,096	-0,00271
847,269	-0,00277
847,442	-0,00276
847,615	-0,00276
847,788	-0,00271
847,961	-0,00279
848,133	-0,00261
848,306	-0,00268
848,479	-0,00267
848,652	-0,00278
848,825	-0,00282
848,997	-0,00289
849,17	-0,00297
849,343	-0,00281
849,515	-0,00292
849,688	-0,00278
849,861	-0,0027
850,033	-0,00285
850,206	-0,00267
850,379	-0,00274
850,551	-0,00262
850,724	-0,00248
850,896	-0,00272
851,069	-0,00271
851,241	-0,00264
851,414	-0,00254
851,586	-0,0029
851,759	-0,00303
851,931	-0,00309
852,104	-0,00322
852,276	-0,00326
852,449	-0,00359
852,621	-0,00363
852,793	-0,00354
852,966	-0,00346
853,138	-0,00367
853,31	-0,00374
853,483	-0,00348
853,655	-0,00347
853,827	-0,00356
853,999	-0,00342
854,172	-0,00323
854,344	-0,00307
854,516	-0,00306
854,688	-0,00294
854,86	-0,00298
855,032	-0,003
855,204	-0,00296
855,377	-0,00307
855,549	-0,00318
855,721	-0,00299
855,893	-0,00327
856,065	-0,00351
856,237	-0,00359
856,409	-0,00368
856,581	-0,00383
856,753	-0,00348
856,924	-0,00322
857,096	-0,00318
857,268	-0,00291
857,44	-0,00282
857,612	-0,00286
857,784	-0,0029
857,956	-0,00269
858,127	-0,00271
858,299	-0,00273
858,471	-0,00255
858,643	-0,00291
858,814	-0,00304
858,986	-0,00308
859,158	-0,00312
859,33	-0,00296
859,501	-0,0031
859,673	-0,00272
859,844	-0,00279
860,016	-0,00258
860,188	-0,00258
860,359	-0,00261
860,531	-0,0025
860,702	-0,00273
860,874	-0,00292
861,045	-0,00312
861,217	-0,00329
861,388	-0,00298
861,56	-0,00338
861,731	-0,00338
861,902	-0,00353
862,074	-0,00356
862,245	-0,00348
862,417	-0,00359
862,588	-0,00365
862,759	-0,00353
862,931	-0,00364
863,102	-0,00364
863,273	-0,00384
863,444	-0,00367
863,616	-0,00371
863,787	-0,00383
863,958	-0,00375
864,129	-0,00394
864,3	-0,004
864,471	-0,00385
864,642	-0,00375
864,814	-0,00387
864,985	-0,00391
865,156	-0,00404
865,327	-0,00413
865,498	-0,00393
865,669	-0,00405
865,84	-0,00411
866,011	-0,00413
866,182	-0,0042
866,353	-0,00406
866,523	-0,00428
866,694	-0,00386
866,865	-0,00372
867,036	-0,00357
867,207	-0,00354
867,378	-0,00409
867,549	-0,00408
867,719	-0,00416
867,89	-0,00424
868,061	-0,00408
868,232	-0,00423
868,402	-0,00434
868,573	-0,00439
868,744	-0,00418
868,914	-0,00413
869,085	-0,00411
869,256	-0,0037
869,426	-0,00372
869,597	-0,00362
869,767	-0,00353
869,938	-0,00353
870,108	-0,00344
870,279	-0,00326
870,449	-0,00358
870,62	-0,00398
870,79	-0,00405
870,961	-0,00387
871,131	-0,00405
871,302	-0,00372
871,472	-0,00382
871,642	-0,00378
871,813	-0,00383
871,983	-0,00409
872,153	-0,00409
872,324	-0,00394
872,494	-0,00387
872,664	-0,00399
872,835	-0,00407
873,005	-0,0037
873,175	-0,0039
873,345	-0,0039
873,515	-0,0042
873,685	-0,0041
873,856	-0,00375
874,026	-0,00374
874,196	-0,00354
874,366	-0,00371
874,536	-0,00363
874,706	-0,00376
874,876	-0,00416
875,046	-0,00433
875,216	-0,0042
875,386	-0,00387
875,556	-0,0038
875,726	-0,00402
875,896	-0,00399
876,066	-0,00413
876,236	-0,00428
876,405	-0,00413
876,575	-0,00408
876,745	-0,00396
876,915	-0,0033
877,085	-0,00332
877,254	-0,00345
877,424	-0,00326
877,594	-0,00337
877,764	-0,00337
877,933	-0,00343
878,103	-0,00323
878,273	-0,00321
878,442	-0,00344
878,612	-0,00356
878,781	-0,00391
878,951	-0,00377
879,121	-0,00376
879,29	-0,00434
879,46	-0,00405
879,629	-0,00376
879,799	-0,0036
879,968	-0,00339
880,138	-0,00343
880,307	-0,00321
880,476	-0,003
880,646	-0,003
880,815	-0,00313
880,985	-0,00306
881,154	-0,00272
881,323	-0,00292
881,493	-0,00312
881,662	-0,00346
881,831	-0,00336
882	-0,0034
882,17	-0,00328
882,339	-0,00345
882,508	-0,0035
882,677	-0,00334
882,846	-0,00326
883,016	-0,00341
883,185	-0,00335
883,354	-0,00359
883,523	-0,00355
883,692	-0,0038
883,861	-0,00372
884,03	-0,00434
884,199	-0,0042
884,368	-0,00399
884,537	-0,00446
884,706	-0,00441
884,875	-0,00445
885,044	-0,00415
885,213	-0,00395
885,382	-0,00367
885,55	-0,00339
885,719	-0,00368
885,888	-0,00354
886,057	-0,0038
886,226	-0,00411
886,395	-0,00402
886,563	-0,00421
886,732	-0,00406
886,901	-0,00443
887,069	-0,00417
887,238	-0,00421
887,407	-0,00447
887,575	-0,004
887,744	-0,00369
887,913	-0,00372
888,081	-0,00354
888,25	-0,00344
888,418	-0,00336
888,587	-0,0035
888,755	-0,00349
888,924	-0,00361
889,092	-0,00344
889,261	-0,00335
889,429	-0,0036
889,598	-0,00335
889,766	-0,00303
889,935	-0,00298
890,103	-0,00325
890,271	-0,00335
890,44	-0,00334
890,608	-0,00361
890,776	-0,00387
890,944	-0,00409
891,113	-0,00413
891,281	-0,00426
891,449	-0,00446
891,617	-0,0046
891,786	-0,00482
891,954	-0,00453
892,122	-0,00394
892,29	-0,00365
892,458	-0,00335
892,626	-0,00317
892,794	-0,0031
892,962	-0,003
893,13	-0,00278
893,298	-0,00273
893,466	-0,00259
