Data from Chemiepractica_Absorbance__36__11-47-13-061.txt Node

Date: Mon Dec 09 11:47:13 CET 2024
User: r0948668
Spectrometer: USB4F07138
Trigger mode: 4
Integration Time (sec): 6,000000E-3
Scans to average: 20
Electric dark correction enabled: true
Nonlinearity correction enabled: false
Boxcar width: 5
XAxis mode: Wavelengths
Number of Pixels in Spectrum: 3648
>>>>>Begin Spectral Data<<<<<
176,779	-0
176,999	-0
177,218	-0
177,438	-1,45308
177,658	-0,8085
177,878	-0,4551
178,097	-0,1238
178,317	-0,26557
178,537	0,05917
178,757	0,28112
178,976	0,02705
179,196	0,23359
179,416	-0
179,635	-0,25505
179,855	-0,07428
180,075	0,00303
180,294	-0,06392
180,514	-0,06688
180,734	-0,00285
180,953	-0,02424
181,173	0,00341
181,392	0,00584
181,612	0,00194
181,832	0,02182
182,051	0,0262
182,271	0,02074
182,49	0,01633
182,71	0,02746
182,929	0,03247
183,149	0,01829
183,368	0,04195
183,588	0,02032
183,807	0,0372
184,027	0,04697
184,246	0,04577
184,466	0,04228
184,685	0,0423
184,905	0,03238
185,124	0,03647
185,344	0,03874
185,563	0,04551
185,782	0,02958
186,002	0,02511
186,221	0,00856
186,44	-0,00407
186,66	-0,00704
186,879	-0,00412
187,099	-0,00458
187,318	-0,00315
187,537	-0,01371
187,756	-0,00909
187,976	-0,01351
188,195	-0,00481
188,414	-0,00594
188,634	0,01836
188,853	0,02515
189,072	0,01791
189,291	0,01216
189,511	0,01692
189,73	0,02452
189,949	0,0292
190,168	0,02217
190,387	0,0359
190,607	0,03413
190,826	0,03425
191,045	0,01566
191,264	0,0208
191,483	0,00913
191,702	0,02012
191,921	0,01337
192,141	0,00895
192,36	-0,00147
192,579	0,01352
192,798	0,00299
193,017	-0,00841
193,236	0,00364
193,455	0,00209
193,674	0,0033
193,893	0,01364
194,112	0,00754
194,331	0,00905
194,55	0,01279
194,769	0,02039
194,988	0,00009
195,207	0,00805
195,426	0,00916
195,645	0,00603
195,864	0,01146
196,083	0,00359
196,302	-0,01014
196,521	-0,00841
196,739	-0,01071
196,958	-0,01605
197,177	-0,01695
197,396	0,00249
197,615	-0,00203
197,834	-0,00228
198,053	-0,00647
198,271	-0,0142
198,49	0,00284
198,709	0,0222
198,928	0,02403
199,147	0,01924
199,365	0,03041
199,584	0,03813
199,803	0,0118
200,022	0,01631
200,24	0,01952
200,459	0,0203
200,678	0,02166
200,897	0,00839
201,115	0,0148
201,334	0,01808
201,553	0,02964
201,771	0,02239
201,99	0,02448
202,209	0,0386
202,427	0,02766
202,646	0,03628
202,864	0,03247
203,083	0,03473
203,302	0,03213
203,52	0,03373
203,739	0,03933
203,957	0,03636
204,176	0,04487
204,394	0,03464
204,613	0,03343
204,831	0,03674
205,05	0,03405
205,268	0,05282
205,487	0,05248
205,705	0,05621
205,924	0,05344
206,142	0,04616
206,361	0,04325
206,579	0,04234
206,798	0,05024
207,016	0,05367
207,234	0,05396
207,453	0,06042
207,671	0,05184
207,89	0,06147
208,108	0,05736
208,326	0,044
208,545	0,03105
208,763	0,02999
208,981	0,01736
209,2	0,00037
209,418	-0,01146
209,636	-0,02193
209,855	-0,02637
210,073	-0,02263
210,291	-0,03192
210,509	-0,03193
210,728	-0,02857
210,946	-0,01175
211,164	-0,02142
211,382	0,00069
211,6	0,02014
211,819	0,02902
212,037	0,04556
212,255	0,03832
212,473	0,03445
212,691	0,04201
212,909	0,05188
213,128	0,0449
213,346	0,04128
213,564	0,06106
213,782	0,04125
214	0,05086
214,218	0,06321
214,436	0,06308
214,654	0,06001
214,872	0,05803
215,09	0,0371
215,308	0,03415
215,526	0,04182
215,744	0,03704
215,962	0,03927
216,18	0,03039
216,398	0,01642
216,616	-0,00019
216,834	-0,00963
217,052	-0,00883
217,27	-0,01783
217,488	-0,0132
217,706	-0,00412
217,924	0,00209
218,142	0,01123
218,36	0,00732
218,578	0,02774
218,795	0,01623
219,013	0,01752
219,231	0,01785
219,449	0,01577
219,667	0,01364
219,885	0,02569
220,102	0,02385
220,32	0,01589
220,538	0,01715
220,756	0,01313
220,973	0,00761
221,191	0,01391
221,409	0,01597
221,627	0,02069
221,844	0,03031
222,062	0,0401
222,28	0,04028
222,497	0,02834
222,715	0,04113
222,933	0,03054
223,15	0,0169
223,368	0,02163
223,586	0,03
223,803	0,03637
224,021	0,03381
224,239	0,02815
224,456	0,0263
224,674	0,01435
224,891	0,02092
225,109	0,00281
225,326	-0,00293
225,544	0,01183
225,762	-0,00858
225,979	-0,00956
226,197	-0,00865
226,414	-0,01116
226,632	-0,0206
226,849	-0,02793
227,066	-0,01112
227,284	-0,01694
227,501	-0,0015
227,719	0,0206
227,936	0,02327
228,154	0,04932
228,371	0,0423
228,588	0,04171
228,806	0,0473
229,023	0,05851
229,241	0,0695
229,458	0,05627
229,675	0,06225
229,893	0,05274
230,11	0,04659
230,327	0,0358
230,545	0,02668
230,762	0,02711
230,979	0,02822
231,196	0,02732
231,414	0,01962
231,631	0,00938
231,848	0,00552
232,065	0,00413
232,283	-0,00018
232,5	-0,0057
232,717	0,00026
232,934	-0,00095
233,151	0,00042
233,368	-0,0036
233,586	-0,01281
233,803	-0,01039
234,02	-0,00163
234,237	0,00238
234,454	0,00744
234,671	0,02473
234,888	0,02614
235,105	0,02541
235,322	0,03749
235,54	0,03493
235,757	0,04383
235,974	0,05587
236,191	0,056
236,408	0,05198
236,625	0,05788
236,842	0,05746
237,059	0,04666
237,276	0,04283
237,493	0,05404
237,71	0,04139
237,926	0,0414
238,143	0,01783
238,36	0,0184
238,577	0,009
238,794	0,00861
239,011	0,00985
239,228	0,00805
239,445	0,00767
239,662	0,016
239,878	0,01471
240,095	0,02636
240,312	0,03788
240,529	0,05556
240,746	0,05901
240,963	0,06714
241,179	0,06766
241,396	0,0748
241,613	0,06697
241,83	0,07275
242,046	0,06114
242,263	0,05601
242,48	0,03463
242,697	0,02488
242,913	0,0198
243,13	0,00121
243,347	0,00746
243,563	0,00873
243,78	0,00512
243,997	0,0142
244,213	0,00463
244,43	0,01882
244,646	0,02197
244,863	0,03222
245,08	0,03649
245,296	0,02945
245,513	0,03359
245,729	0,02754
245,946	0,02797
246,162	0,02358
246,379	0,01439
246,595	0,01164
246,812	0,00869
247,028	0,01088
247,245	0,0084
247,461	0,01113
247,678	0,01733
247,894	0,0257
248,111	0,01797
248,327	0,0259
248,544	0,02288
248,76	0,02844
248,976	0,04693
249,193	0,04232
249,409	0,0414
249,626	0,0362
249,842	0,03721
250,058	0,03778
250,275	0,03375
250,491	0,03843
250,707	0,03107
250,924	0,03944
251,14	0,04398
251,356	0,04133
251,572	0,04541
251,789	0,04085
252,005	0,05069
252,221	0,05022
252,437	0,0512
252,654	0,05246
252,87	0,05101
253,086	0,06397
253,302	0,07086
253,518	0,06531
253,735	0,05694
253,951	0,04555
254,167	0,04146
254,383	0,03421
254,599	0,01804
254,815	0,0166
255,031	0,00941
255,247	0,00286
255,463	-0,01799
255,68	-0,01317
255,896	-0,00918
256,112	-0,01276
256,328	-0,00441
256,544	-0,00347
256,76	0,0082
256,976	0,01797
257,192	0,02344
257,408	0,03197
257,624	0,04006
257,84	0,0526
258,056	0,04168
258,272	0,03928
258,487	0,03497
258,703	0,02828
258,919	0,03812
259,135	0,03017
259,351	0,02712
259,567	0,02438
259,783	0,02022
259,999	0,02134
260,215	0,02518
260,43	0,01406
260,646	0,01309
260,862	0,02044
261,078	0,02349
261,294	0,01232
261,509	0,01747
261,725	0,02796
261,941	0,02328
262,157	0,03122
262,372	0,03824
262,588	0,02855
262,804	0,03748
263,019	0,03323
263,235	0,03426
263,451	0,04002
263,667	0,04714
263,882	0,05214
264,098	0,05105
264,313	0,05108
264,529	0,04067
264,745	0,04068
264,96	0,03419
265,176	0,03838
265,391	0,0321
265,607	0,03376
265,823	0,02255
266,038	0,01584
266,254	0,01162
266,469	0,00972
266,685	0,01348
266,9	0,01525
267,116	0,0162
267,331	0,03822
267,547	0,0336
267,762	0,03098
267,978	0,03233
268,193	0,04239
268,408	0,05256
268,624	0,05794
268,839	0,05819
269,055	0,04826
269,27	0,05081
269,485	0,05131
269,701	0,04223
269,916	0,03654
270,132	0,04906
270,347	0,04948
270,562	0,04473
270,777	0,04409
270,993	0,04094
271,208	0,04089
271,423	0,06071
271,639	0,06713
271,854	0,0595
272,069	0,0513
272,284	0,05126
272,5	0,04632
272,715	0,03552
272,93	0,02891
273,145	0,02063
273,36	0,01954
273,576	0,02329
273,791	0,01135
274,006	0,00635
274,221	0,00657
274,436	0,01337
274,651	0,02203
274,866	0,02692
275,081	0,04029
275,296	0,04923
275,512	0,04813
275,727	0,05593
275,942	0,05032
276,157	0,05459
276,372	0,05306
276,587	0,06114
276,802	0,06543
277,017	0,05781
277,232	0,05846
277,447	0,05197
277,662	0,04658
277,877	0,04199
278,092	0,03571
278,306	0,03598
278,521	0,03702
278,736	0,03856
278,951	0,03692
279,166	0,02588
279,381	0,02437
279,596	0,01646
279,811	0,01246
280,025	0,00574
280,24	0,00775
280,455	0,00649
280,67	0,00529
280,885	-0,00264
281,099	-0,00463
281,314	-0,00744
281,529	-0,00811
281,744	0,00097
281,959	0,00923
282,173	0,01326
282,388	0,02635
282,603	0,02457
282,817	0,02493
283,032	0,03299
283,247	0,03016
283,461	0,02627
283,676	0,016
283,891	0,01587
284,105	0,01241
284,32	0,01179
284,535	0,01009
284,749	0,00622
284,964	0,02668
285,178	0,01932
285,393	0,01985
285,607	0,01769
285,822	0,02473
286,036	0,03725
286,251	0,0429
286,465	0,04756
286,68	0,04753
286,894	0,05518
287,109	0,05709
287,323	0,03534
287,538	0,04498
287,752	0,0412
287,967	0,05011
288,181	0,04506
288,396	0,04931
288,61	0,05292
288,824	0,05312
289,039	0,0566
289,253	0,05052
289,467	0,0499
289,682	0,05404
289,896	0,05854
290,11	0,05573
290,325	0,06131
290,539	0,05703
290,753	0,04772
290,968	0,04171
291,182	0,03066
291,396	0,02962
291,61	0,03507
291,825	0,03562
292,039	0,04176
292,253	0,02638
292,467	0,01666
292,681	0,00482
292,896	0,0081
293,11	0,00071
293,324	0,00962
293,538	0,02041
293,752	0,02494
293,966	0,01929
294,18	0,01672
294,394	0,00552
294,608	0,01744
294,823	0,02451
295,037	0,0297
295,251	0,03315
295,465	0,04376
295,679	0,03056
295,893	0,02554
296,107	0,01545
296,321	0,02008
296,535	0,01148
296,749	0,01208
296,963	-0,0026
297,177	-0,00934
297,391	-0,00772
297,604	-0,01276
297,818	-0,01523
298,032	-0,02238
298,246	-0,02263
298,46	-0,01521
298,674	-0,0164
298,888	-0,00503
299,102	0,00598
299,315	0,03097
299,529	0,04888
299,743	0,04997
299,957	0,05064
300,171	0,05299
300,385	0,06805
300,598	0,06745
300,812	0,05846
301,026	0,0556
301,24	0,05997
301,453	0,05413
301,667	0,04017
301,881	0,02981
302,094	0,02926
302,308	0,03343
302,522	0,03225
302,735	0,03054
302,949	0,02929
303,163	0,03235
303,376	0,03549
303,59	0,03845
303,803	0,03329
304,017	0,03288
304,231	0,03571
304,444	0,03344
304,658	0,0323
304,871	0,03868
305,085	0,04014
305,298	0,0385
305,512	0,0381
305,725	0,03296
305,939	0,02765
306,152	0,02518
306,366	0,01225
306,579	0,02007
306,793	0,026
307,006	0,02496
307,22	0,01727
307,433	0,0109
307,646	0,00721
307,86	0,00699
308,073	0,00788
308,286	-0,00102
308,5	0,00334
308,713	0,01089
308,926	0,00917
309,14	0,00537
309,353	0,0028
309,566	-0,00269
309,78	-0,00559
309,993	-0,00738
310,206	-0,00135
310,419	-0,00438
310,633	-0,00139
310,846	0,00475
311,059	0,001
311,272	-0,00802
311,486	-0,00837
311,699	-0,00974
311,912	-0,00382
312,125	-0,0002
312,338	0,01057
312,551	0,00583
312,764	0,01268
312,978	0,0258
313,191	0,02534
313,404	0,02802
313,617	0,02509
313,83	0,02968
314,043	0,0356
314,256	0,03537
314,469	0,03073
314,682	0,02427
314,895	0,02479
315,108	0,02507
315,321	0,01864
315,534	0,01423
315,747	0,01894
315,96	0,02692
316,173	0,01966
316,386	0,01909
316,599	0,02026
316,812	0,02402
317,025	0,0369
317,237	0,03413
317,45	0,03235
317,663	0,03223
317,876	0,04046
318,089	0,03843
318,302	0,0253
318,515	0,0227
318,727	0,01736
318,94	0,01976
319,153	0,01735
319,366	0,00673
319,578	0,00918
319,791	0,01173
320,004	0,00025
320,217	-0,00296
320,429	-0,00028
320,642	0,01334
320,855	0,01358
321,067	0,01399
321,28	0,00445
321,493	0,0096
321,705	0,00996
321,918	0,0069
322,131	0,00514
322,343	0,00902
322,556	0,00634
322,768	0,00662
322,981	-0,0004
323,194	0,00033
323,406	0,0013
323,619	0,0042
323,831	0,00432
324,044	0,00626
324,256	0,01066
324,469	0,0012
324,681	-0,00013
324,894	-0,001
325,106	0,00199
325,319	0,00052
325,531	0,01431
325,743	0,01117
325,956	0,01293
326,168	0,01249
326,381	0,01164
326,593	0,00253
326,805	0,01874
327,018	0,02245
327,23	0,01454
327,442	0,0142
327,655	0,01264
327,867	0,00488
328,079	0,00885
328,292	0,01138
328,504	0,01418
328,716	0,00539
328,928	0,01447
329,141	0,01112
329,353	0,00983
329,565	0,01815
329,777	0,01559
329,99	0,02363
330,202	0,03059
330,414	0,02477
330,626	0,02686
330,838	0,02854
331,05	0,0332
331,263	0,03458
331,475	0,03404
331,687	0,03389
331,899	0,03534
332,111	0,03446
332,323	0,03463
332,535	0,02789
332,747	0,03399
332,959	0,02879
333,171	0,02821
333,383	0,0343
333,595	0,02949
333,807	0,02465
334,019	0,02536
334,231	0,02168
334,443	0,00992
334,655	0,00705
334,867	0,00368
335,079	0,00644
335,291	0,00134
335,503	0,00577
335,714	0,00032
335,926	0,00512
336,138	0,00399
336,35	-0,0038
336,562	-0,00116
336,774	0,01016
336,986	0,0084
337,197	0,01424
337,409	0,01012
337,621	0,00984
337,833	0,00155
338,044	0,00397
338,256	0,00024
338,468	0,00858
338,68	0,01719
338,891	0,01874
339,103	0,01252
339,315	0,00459
339,526	-0,00611
339,738	-0,01374
339,95	-0,01754
340,161	-0,0066
340,373	-0,01404
340,585	-0,01709
340,796	-0,02194
341,008	-0,02093
341,219	-0,01537
341,431	-0,01525
341,642	-0,00703
341,854	0,00269
342,065	0,01361
342,277	0,02123
342,489	0,00751
342,7	0,01616
342,912	0,0234
343,123	0,02205
343,334	0,02686
343,546	0,00941
343,757	0,02137
343,969	0,01847
344,18	0,00762
344,392	-0,00047
344,603	0,0115
344,814	0,01705
345,026	0,01884
345,237	0,00887
345,448	0,00442
345,66	0,0004
345,871	0,00968
346,082	0,00677
346,294	0,00823
346,505	0,01368
346,716	0,01926
346,927	0,01424
347,139	0,01968
347,35	0,01114
347,561	0,01709
347,772	0,0196
347,984	0,01958
348,195	0,01922
348,406	0,00566
348,617	0,01173
348,828	0,01241
349,039	0,01434
349,251	0,00889
349,462	0,00652
349,673	0,00507
349,884	0,00535
350,095	0,00233
350,306	0,00171
350,517	0,00768
350,728	0,01725
350,939	0,01443
351,15	0,02173
351,361	0,01823
351,572	0,02928
351,783	0,02896
351,994	0,03558
352,205	0,03622
352,416	0,04368
352,627	0,04262
352,838	0,03894
353,049	0,04116
353,26	0,04018
353,471	0,02914
353,682	0,0323
353,893	0,02465
354,103	0,02506
354,314	0,02174
354,525	0,02195
354,736	0,0187
354,947	0,01607
355,157	0,01558
355,368	0,01364
355,579	0,01066
355,79	0,01912
356,001	0,01753
356,211	0,0183
356,422	0,00517
356,633	0,01111
356,843	0,01029
357,054	0,01228
357,265	0,01795
357,476	0,01915
357,686	0,02193
357,897	0,02768
358,107	0,01733
358,318	0,0162
358,529	0,01195
358,739	0,0254
358,95	0,02363
359,16	0,0256
359,371	0,02326
359,582	0,01807
359,792	0,01864
360,003	0,01033
360,213	0,00365
360,424	0,00839
360,634	0,01238
360,845	0,01022
361,055	0,01244
361,266	0,01344
361,476	0,02243
361,686	0,02348
361,897	0,0302
362,107	0,03236
362,318	0,0361
362,528	0,04094
362,738	0,03875
362,949	0,03846
363,159	0,04433
363,369	0,0407
363,58	0,03233
363,79	0,02158
364	0,01878
364,211	0,01504
364,421	0,0123
364,631	0,01913
364,842	0,01433
365,052	0,01485
365,262	0,01197
365,472	0,01226
365,682	0,01561
365,893	0,02259
366,103	0,03133
366,313	0,03479
366,523	0,03909
366,733	0,03689
366,943	0,03216
367,154	0,03691
367,364	0,04561
367,574	0,04382
367,784	0,04782
367,994	0,04407
368,204	0,04802
368,414	0,04027
368,624	0,04055
368,834	0,03548
369,044	0,03924
369,254	0,03819
369,464	0,03834
369,674	0,0316
369,884	0,0327
370,094	0,02908
370,304	0,02471
370,514	0,02145
370,724	0,02057
370,934	0,01894
371,144	0,01756
371,353	0,0175
371,563	0,02246
371,773	0,01982
371,983	0,02219
372,193	0,02699
372,403	0,02953
372,612	0,03324
372,822	0,03239
373,032	0,03045
373,242	0,03186
373,452	0,03272
373,661	0,03452
373,871	0,0303
374,081	0,03254
374,29	0,03532
374,5	0,02984
374,71	0,02441
374,92	0,02218
375,129	0,02148
375,339	0,02241
375,549	0,0197
375,758	0,02312
375,968	0,01573
376,177	0,01557
376,387	0,01516
376,597	0,01354
376,806	0,01512
377,016	0,01824
377,225	0,0194
377,435	0,02065
377,644	0,02413
377,854	0,02571
378,063	0,02357
378,273	0,02493
378,482	0,02481
378,692	0,02466
378,901	0,02653
379,111	0,02772
379,32	0,02779
379,529	0,02626
379,739	0,02271
379,948	0,02217
380,158	0,02523
380,367	0,03145
380,576	0,03375
380,786	0,03086
380,995	0,03519
381,204	0,03343
381,414	0,03445
381,623	0,03385
381,832	0,03558
382,041	0,03903
382,251	0,03985
382,46	0,03228
382,669	0,02256
382,878	0,02321
383,088	0,02573
383,297	0,02257
383,506	0,01969
383,715	0,01773
383,924	0,01785
384,133	0,01823
384,342	0,01936
384,552	0,0188
384,761	0,02624
384,97	0,03055
385,179	0,0306
385,388	0,03124
385,597	0,03019
385,806	0,03032
386,015	0,03182
386,224	0,02883
386,433	0,02791
386,642	0,0225
386,851	0,0199
387,06	0,02248
387,269	0,02385
387,478	0,02254
387,687	0,02374
387,896	0,02435
388,105	0,02371
388,314	0,01851
388,523	0,01953
388,731	0,01751
388,94	0,02332
389,149	0,02487
389,358	0,02204
389,567	0,02323
389,776	0,02319
389,984	0,02376
390,193	0,02329
390,402	0,02276
390,611	0,02413
390,819	0,02111
391,028	0,02412
391,237	0,02245
391,446	0,01824
391,654	0,01682
391,863	0,0134
392,072	0,01341
392,28	0,01279
392,489	0,01398
392,698	0,01434
392,906	0,01773
393,115	0,0224
393,324	0,02201
393,532	0,01939
393,741	0,01895
393,949	0,01827
394,158	0,01866
394,366	0,01662
394,575	0,01362
394,783	0,01108
394,992	0,0112
395,2	0,00756
395,409	0,00724
395,617	0,00469
395,826	0,00693
396,034	0,0064
396,243	0,00508
396,451	0,00337
396,66	0,00645
396,868	0,00657
397,076	0,00738
397,285	0,00712
397,493	0,00808
397,701	0,00734
397,91	0,00826
398,118	0,01018
398,326	0,01507
398,535	0,0139
398,743	0,0155
398,951	0,01487
399,159	0,01657
399,368	0,01801
399,576	0,01841
399,784	0,02119
399,992	0,02121
400,201	0,02119
400,409	0,01616
400,617	0,01466
400,825	0,0185
401,033	0,0172
401,241	0,01675
401,45	0,01689
401,658	0,01529
401,866	0,01746
402,074	0,01498
402,282	0,0152
402,49	0,01435
402,698	0,01613
402,906	0,0149
403,114	0,01288
403,322	0,01343
403,53	0,01528
403,738	0,01563
403,946	0,01534
404,154	0,01091
404,362	0,01317
404,57	0,01154
404,778	0,01105
404,986	0,01148
405,194	0,01238
405,402	0,01399
405,609	0,01363
405,817	0,01063
406,025	0,01113
406,233	0,01322
406,441	0,0151
406,649	0,01212
406,856	0,01295
407,064	0,01382
407,272	0,01407
407,48	0,01458
407,687	0,01327
407,895	0,01434
408,103	0,01544
408,311	0,01404
408,518	0,01059
408,726	0,0109
408,934	0,01118
409,141	0,01223
409,349	0,0108
409,557	0,01175
409,764	0,01094
409,972	0,01103
410,18	0,00972
410,387	0,01021
410,595	0,00982
410,802	0,01151
411,01	0,0114
411,217	0,01149
411,425	0,01191
411,632	0,01359
411,84	0,01206
412,047	0,0116
412,255	0,0096
412,462	0,00971
412,67	0,00902
412,877	0,0088
413,085	0,0078
413,292	0,00748
413,499	0,00919
413,707	0,0077
413,914	0,00772
414,122	0,00726
414,329	0,00819
414,536	0,00862
414,744	0,00937
414,951	0,01008
415,158	0,01053
415,366	0,01073
415,573	0,01108
415,78	0,00931
415,987	0,00887
416,195	0,00953
416,402	0,00959
416,609	0,01058
416,816	0,01218
417,023	0,01281
417,231	0,01385
417,438	0,01332
417,645	0,01274
417,852	0,01203
418,059	0,01216
418,266	0,01079
418,473	0,01051
418,68	0,01114
418,888	0,01045
419,095	0,0096
419,302	0,0094
419,509	0,0079
419,716	0,00885
419,923	0,01005
420,13	0,01028
420,337	0,01109
420,544	0,0122
420,751	0,01129
420,958	0,01172
421,165	0,01227
421,371	0,0124
421,578	0,0122
421,785	0,01207
421,992	0,01097
422,199	0,01076
422,406	0,01166
422,613	0,01119
422,82	0,01191
423,026	0,01182
423,233	0,01143
423,44	0,00863
423,647	0,00912
423,854	0,00947
424,06	0,00902
424,267	0,00889
424,474	0,00848
424,681	0,00814
424,887	0,00793
425,094	0,00794
425,301	0,00806
425,507	0,00623
425,714	0,00648
425,921	0,00597
426,127	0,00531
426,334	0,00582
426,54	0,00683
426,747	0,00858
426,954	0,0068
427,16	0,00628
427,367	0,00576
427,573	0,00639
427,78	0,00757
427,986	0,00885
428,193	0,00749
428,399	0,00792
428,606	0,00762
428,812	0,00847
429,019	0,007
429,225	0,00836
429,432	0,01013
429,638	0,00978
429,845	0,00773
430,051	0,00864
430,257	0,00767
430,464	0,00848
430,67	0,00799
430,876	0,00801
431,083	0,00797
431,289	0,00903
431,495	0,00996
431,702	0,00875
431,908	0,00818
432,114	0,00888
432,32	0,0083
432,527	0,00847
432,733	0,00813
432,939	0,00784
433,145	0,00887
433,351	0,0076
433,558	0,00683
433,764	0,00617
433,97	0,00503
434,176	0,00594
434,382	0,00654
434,588	0,00639
434,794	0,00704
435,001	0,0074
435,207	0,007
435,413	0,00652
435,619	0,007
435,825	0,00709
436,031	0,00765
436,237	0,00863
436,443	0,00971
436,649	0,00954
436,855	0,0101
437,061	0,01057
437,267	0,01094
437,473	0,01165
437,679	0,01213
437,884	0,01184
438,09	0,01154
438,296	0,00993
438,502	0,00895
438,708	0,00778
438,914	0,00862
439,12	0,0087
439,325	0,00863
439,531	0,00893
439,737	0,00848
439,943	0,00812
440,149	0,00811
440,354	0,00849
440,56	0,00898
440,766	0,00916
440,972	0,00922
441,177	0,00871
441,383	0,00876
441,589	0,00916
441,794	0,0091
442	0,01017
442,206	0,01057
442,411	0,01058
442,617	0,01076
442,822	0,01153
443,028	0,01209
443,234	0,01304
443,439	0,01325
443,645	0,01336
443,85	0,01317
444,056	0,01333
444,261	0,01332
444,467	0,01238
444,672	0,01234
444,878	0,01232
445,083	0,01206
445,289	0,01157
445,494	0,01086
445,699	0,01053
445,905	0,01026
446,11	0,01007
446,316	0,01024
446,521	0,00958
446,726	0,01027
446,932	0,01036
447,137	0,01037
447,342	0,01037
447,548	0,0103
447,753	0,01094
447,958	0,01085
448,164	0,01018
448,369	0,01033
448,574	0,0097
448,779	0,00998
448,984	0,00945
449,19	0,01005
449,395	0,00968
449,6	0,00972
449,805	0,01019
450,01	0,00988
450,215	0,01022
450,421	0,01113
450,626	0,01093
450,831	0,01067
451,036	0,0103
451,241	0,01046
451,446	0,00966
451,651	0,01004
451,856	0,01059
452,061	0,01095
452,266	0,01107
452,471	0,01156
452,676	0,01143
452,881	0,01136
453,086	0,01216
453,291	0,01263
453,496	0,01285
453,701	0,01397
453,906	0,01414
454,111	0,01301
454,316	0,01358
454,52	0,01317
454,725	0,0127
454,93	0,01297
455,135	0,0132
455,34	0,01333
455,545	0,01375
455,749	0,01382
455,954	0,01332
456,159	0,01302
456,364	0,01464
456,568	0,01436
456,773	0,01536
456,978	0,01608
457,182	0,01644
457,387	0,01688
457,592	0,01657
457,796	0,01612
458,001	0,01704
458,206	0,01721
458,41	0,01795
458,615	0,01721
458,82	0,01798
459,024	0,01801
459,229	0,01836
459,433	0,0181
459,638	0,01795
459,842	0,01875
460,047	0,01888
460,251	0,01816
460,456	0,01791
460,66	0,01778
460,865	0,01807
461,069	0,01762
461,274	0,01715
461,478	0,01653
461,682	0,01644
461,887	0,01688
462,091	0,01632
462,296	0,01657
462,5	0,01705
462,704	0,01749
462,909	0,01691
463,113	0,01701
463,317	0,01729
463,522	0,01807
463,726	0,01847
463,93	0,0187
464,134	0,01884
464,339	0,01911
464,543	0,01924
464,747	0,01883
464,951	0,01906
465,155	0,01982
465,36	0,02016
465,564	0,0201
465,768	0,01945
465,972	0,02031
466,176	0,02097
466,38	0,02074
466,584	0,02145
466,788	0,02136
466,993	0,02197
467,197	0,02185
467,401	0,02226
467,605	0,02196
467,809	0,02215
468,013	0,02294
468,217	0,02249
468,421	0,02195
468,625	0,02192
468,829	0,02148
469,033	0,02195
469,236	0,02253
469,44	0,02277
469,644	0,02222
469,848	0,02264
470,052	0,02329
470,256	0,02251
470,46	0,02235
470,664	0,02295
470,867	0,02361
471,071	0,024
471,275	0,02411
471,479	0,02398
471,683	0,02424
471,886	0,02502
472,09	0,02533
472,294	0,02499
472,497	0,02568
472,701	0,02583
472,905	0,02588
473,109	0,02619
473,312	0,02625
473,516	0,0267
473,719	0,02651
473,923	0,02662
474,127	0,02638
474,33	0,02583
474,534	0,02606
474,737	0,02641
474,941	0,02674
475,145	0,02623
475,348	0,02589
475,552	0,02594
475,755	0,02585
475,959	0,02619
476,162	0,02649
476,366	0,0268
476,569	0,02743
476,772	0,02775
476,976	0,02775
477,179	0,02793
477,383	0,02875
477,586	0,02873
477,789	0,02913
477,993	0,02941
478,196	0,02988
478,399	0,03033
478,603	0,03054
478,806	0,03057
479,009	0,03042
479,213	0,03061
479,416	0,03075
479,619	0,03122
479,822	0,03173
480,026	0,03198
480,229	0,03198
480,432	0,03245
480,635	0,0321
480,838	0,03235
481,041	0,03248
481,245	0,03266
481,448	0,03275
481,651	0,03302
481,854	0,03271
482,057	0,03289
482,26	0,03295
482,463	0,0333
482,666	0,0334
482,869	0,03386
483,072	0,0343
483,275	0,03461
483,478	0,0351
483,681	0,03568
483,884	0,03602
484,087	0,03659
484,29	0,0372
484,493	0,03746
484,696	0,03795
484,899	0,03809
485,102	0,03852
485,305	0,03831
485,508	0,03889
485,71	0,03921
485,913	0,03933
486,116	0,03952
486,319	0,03982
486,522	0,03969
486,725	0,04005
486,927	0,04008
487,13	0,04006
487,333	0,04044
487,536	0,0411
487,738	0,04147
487,941	0,04153
488,144	0,04205
488,346	0,04226
488,549	0,04234
488,752	0,04303
488,954	0,04329
489,157	0,04325
489,359	0,0439
489,562	0,0439
489,765	0,04399
489,967	0,04414
490,17	0,04454
490,372	0,04467
490,575	0,04477
490,777	0,04529
490,98	0,04519
491,182	0,04535
491,385	0,04618
491,587	0,04626
491,79	0,04673
491,992	0,04718
492,195	0,04761
492,397	0,04799
492,599	0,04847
492,802	0,04884
493,004	0,04924
493,207	0,04964
493,409	0,05022
493,611	0,05043
493,814	0,05075
494,016	0,05082
494,218	0,0509
494,42	0,05125
494,623	0,05174
494,825	0,05209
495,027	0,05254
495,229	0,05281
495,432	0,05315
495,634	0,05344
495,836	0,05397
496,038	0,05448
496,24	0,05523
496,442	0,05559
496,645	0,05592
496,847	0,0561
497,049	0,0563
497,251	0,05676
497,453	0,05715
497,655	0,05759
497,857	0,05819
498,059	0,05849
498,261	0,05874
498,463	0,05909
498,665	0,05963
498,867	0,05982
499,069	0,06041
499,271	0,06069
499,473	0,06103
499,675	0,06153
499,877	0,06176
500,079	0,06202
500,281	0,06239
500,482	0,06289
500,684	0,06315
500,886	0,06356
501,088	0,06415
501,29	0,06448
501,492	0,06505
501,693	0,0658
501,895	0,06621
502,097	0,06685
502,299	0,06704
502,5	0,06732
502,702	0,06768
502,904	0,06847
503,106	0,06916
503,307	0,06946
503,509	0,06978
503,711	0,07003
503,912	0,0704
504,114	0,07066
504,315	0,07104
504,517	0,0717
504,719	0,07225
504,92	0,07265
505,122	0,07281
505,323	0,07305
505,525	0,07356
505,726	0,07406
505,928	0,0748
506,129	0,07506
506,331	0,0756
506,532	0,07625
506,734	0,07661
506,935	0,07718
507,137	0,07751
507,338	0,07794
507,539	0,07822
507,741	0,07879
507,942	0,07923
508,143	0,07978
508,345	0,08034
508,546	0,08079
508,747	0,08121
508,949	0,08177
509,15	0,08197
509,351	0,08249
509,553	0,08272
509,754	0,08352
509,955	0,08374
510,156	0,08435
510,357	0,08469
510,559	0,08507
510,76	0,08553
510,961	0,08607
511,162	0,08657
511,363	0,08721
511,564	0,08782
511,766	0,08863
511,967	0,08913
512,168	0,08975
512,369	0,09041
512,57	0,09097
512,771	0,09181
512,972	0,09256
513,173	0,09309
513,374	0,09362
513,575	0,09415
513,776	0,09474
513,977	0,09506
514,178	0,09565
514,379	0,09638
514,58	0,09658
514,781	0,09738
514,981	0,09779
515,182	0,09809
515,383	0,09857
515,584	0,09937
515,785	0,09993
515,986	0,10057
516,187	0,10153
516,387	0,10194
516,588	0,1025
516,789	0,10339
516,99	0,10369
517,19	0,1044
517,391	0,10507
517,592	0,10569
517,793	0,10622
517,993	0,107
518,194	0,10754
518,395	0,10796
518,595	0,10844
518,796	0,10905
518,996	0,10952
519,197	0,11023
519,398	0,11051
519,598	0,11126
519,799	0,11167
519,999	0,11213
520,2	0,11268
520,4	0,11323
520,601	0,1139
520,801	0,11453
521,002	0,11516
521,202	0,11573
521,403	0,11641
521,603	0,11723
521,804	0,11753
522,004	0,1183
522,204	0,11892
522,405	0,11947
522,605	0,12002
522,806	0,12038
523,006	0,12109
523,206	0,12188
523,407	0,12254
523,607	0,12295
523,807	0,1235
524,007	0,12421
524,208	0,1249
524,408	0,12542
524,608	0,12591
524,808	0,12668
525,009	0,1275
525,209	0,12791
525,409	0,12837
525,609	0,12898
525,809	0,12976
526,009	0,13033
526,209	0,13105
526,41	0,13162
526,61	0,13244
526,81	0,13312
527,01	0,13365
527,21	0,13404
527,41	0,13474
527,61	0,13527
527,81	0,13564
528,01	0,13615
528,21	0,13675
528,41	0,13718
528,61	0,13763
528,81	0,13808
529,01	0,13853
529,21	0,13914
529,41	0,13959
529,609	0,14003
529,809	0,14037
530,009	0,14118
530,209	0,14173
530,409	0,14209
530,609	0,14257
530,808	0,14307
531,008	0,14352
531,208	0,14396
531,408	0,14443
531,608	0,14517
531,807	0,14579
532,007	0,14643
532,207	0,14677
532,406	0,1472
532,606	0,14798
532,806	0,14879
533,005	0,14925
533,205	0,14952
533,405	0,15013
533,604	0,15053
533,804	0,15089
534,003	0,15144
534,203	0,15182
534,403	0,1521
534,602	0,15242
534,802	0,15259
535,001	0,15282
535,201	0,15333
535,4	0,15383
535,6	0,15428
535,799	0,15479
535,998	0,15535
536,198	0,15584
536,397	0,15639
536,597	0,15699
536,796	0,15771
536,995	0,15815
537,195	0,15859
537,394	0,15899
537,594	0,15953
537,793	0,1601
537,992	0,16063
538,191	0,16106
538,391	0,16139
538,59	0,16161
538,789	0,16211
538,988	0,16218
539,188	0,16266
539,387	0,16311
539,586	0,16374
539,785	0,16414
539,984	0,16435
540,184	0,16442
540,383	0,16482
540,582	0,1651
540,781	0,16567
540,98	0,16606
541,179	0,16657
541,378	0,1671
541,577	0,16725
541,776	0,16734
541,975	0,16767
542,174	0,16811
542,373	0,16863
542,572	0,16886
542,771	0,16935
542,97	0,16971
543,169	0,16983
543,368	0,16998
543,567	0,17024
543,766	0,17057
543,965	0,17084
544,164	0,17109
544,362	0,17146
544,561	0,17171
544,76	0,17212
544,959	0,17246
545,158	0,17265
545,356	0,1729
545,555	0,17338
545,754	0,17348
545,953	0,17372
546,151	0,17405
546,35	0,17427
546,549	0,17442
546,748	0,17471
546,946	0,17493
547,145	0,17501
547,344	0,17536
547,542	0,17566
547,741	0,17591
547,939	0,17624
548,138	0,17651
548,337	0,17677
548,535	0,17699
548,734	0,1772
548,932	0,17726
549,131	0,17749
549,329	0,17762
549,528	0,17764
549,726	0,17781
549,925	0,17784
550,123	0,17808
550,322	0,17821
550,52	0,17855
550,718	0,17892
550,917	0,17901
551,115	0,17932
551,313	0,17939
551,512	0,17984
551,71	0,18021
551,908	0,18052
552,107	0,1809
552,305	0,18109
552,503	0,18149
552,702	0,18145
552,9	0,18155
553,098	0,18191
553,296	0,18212
553,495	0,18232
553,693	0,18252
553,891	0,18269
554,089	0,18291
554,287	0,18308
554,485	0,18332
554,683	0,18348
554,882	0,18385
555,08	0,18403
555,278	0,184
555,476	0,18414
555,674	0,18439
555,872	0,18428
556,07	0,18442
556,268	0,18462
556,466	0,1847
556,664	0,18478
556,862	0,18473
557,06	0,18488
557,258	0,18501
557,456	0,18537
557,654	0,18567
557,851	0,18577
558,049	0,18599
558,247	0,1863
558,445	0,18651
558,643	0,18677
558,841	0,18701
559,039	0,18751
559,236	0,18773
559,434	0,18817
559,632	0,18836
559,83	0,1887
560,027	0,18908
560,225	0,18939
560,423	0,18951
560,62	0,18986
560,818	0,18992
561,016	0,19019
561,213	0,19045
561,411	0,19066
561,609	0,19078
561,806	0,19096
562,004	0,19108
562,202	0,19125
562,399	0,19164
562,597	0,19213
562,794	0,19242
562,992	0,19296
563,189	0,19329
563,387	0,19374
563,584	0,19413
563,782	0,19441
563,979	0,19481
564,177	0,19506
564,374	0,19544
564,571	0,19593
564,769	0,196
564,966	0,19615
565,164	0,19647
565,361	0,19679
565,558	0,19679
565,756	0,19707
565,953	0,19753
566,15	0,19786
566,347	0,19828
566,545	0,19873
566,742	0,19887
566,939	0,19924
567,136	0,19961
567,334	0,2
567,531	0,20031
567,728	0,20078
567,925	0,20134
568,122	0,20178
568,319	0,20236
568,517	0,20297
568,714	0,20319
568,911	0,20379
569,108	0,20452
569,305	0,20502
569,502	0,20547
569,699	0,20596
569,896	0,20647
570,093	0,20691
570,29	0,20741
570,487	0,20784
570,684	0,20849
570,881	0,20918
571,078	0,20961
571,275	0,21
571,472	0,21057
571,669	0,21099
571,866	0,21164
572,062	0,21226
572,259	0,21282
572,456	0,21316
572,653	0,21376
572,85	0,21393
573,047	0,21445
573,243	0,21492
573,44	0,21545
573,637	0,21593
573,834	0,21649
574,03	0,21712
574,227	0,21757
574,424	0,21813
574,62	0,21879
574,817	0,21936
575,014	0,22008
575,21	0,22054
575,407	0,22112
575,604	0,22188
575,8	0,22248
575,997	0,2232
576,193	0,2236
576,39	0,22429
576,586	0,22482
576,783	0,22538
576,979	0,2258
577,176	0,22634
577,372	0,22703
577,569	0,22766
577,765	0,22797
577,962	0,22851
578,158	0,22902
578,355	0,22959
578,551	0,23011
578,747	0,23064
578,944	0,23133
579,14	0,23204
579,336	0,23264
579,533	0,2332
579,729	0,2337
579,925	0,23422
580,122	0,23486
580,318	0,23541
580,514	0,23597
580,71	0,2365
580,906	0,23708
581,103	0,23763
581,299	0,23808
581,495	0,23844
581,691	0,23904
581,887	0,23963
582,084	0,24029
582,28	0,24079
582,476	0,24137
582,672	0,24187
582,868	0,2424
583,064	0,24291
583,26	0,24326
583,456	0,24365
583,652	0,24419
583,848	0,24453
584,044	0,24486
584,24	0,2452
584,436	0,24566
584,632	0,24576
584,828	0,24607
585,024	0,24644
585,22	0,2468
585,416	0,24708
585,611	0,24751
585,807	0,24785
586,003	0,24821
586,199	0,24837
586,395	0,24868
586,591	0,24874
586,786	0,24921
586,982	0,24945
587,178	0,24956
587,374	0,24965
587,569	0,24982
587,765	0,24997
587,961	0,25001
588,156	0,25005
588,352	0,25027
588,548	0,25039
588,743	0,2506
588,939	0,25054
589,135	0,25054
589,33	0,25064
589,526	0,25057
589,721	0,25055
589,917	0,25051
590,112	0,25045
590,308	0,2504
590,503	0,25047
590,699	0,25034
590,894	0,25015
591,09	0,25016
591,285	0,24992
591,481	0,24979
591,676	0,24972
591,872	0,24953
592,067	0,2494
592,262	0,24927
592,458	0,24901
592,653	0,24868
592,848	0,24842
593,044	0,24826
593,239	0,24794
593,434	0,24769
593,629	0,24723
593,825	0,24674
594,02	0,24633
594,215	0,24568
594,41	0,24525
594,606	0,24462
594,801	0,24408
594,996	0,24348
595,191	0,24298
595,386	0,24225
595,581	0,24168
595,777	0,24115
595,972	0,24061
596,167	0,23997
596,362	0,23946
596,557	0,23892
596,752	0,23851
596,947	0,2379
597,142	0,2373
597,337	0,23635
597,532	0,23564
597,727	0,23485
597,922	0,23404
598,117	0,23335
598,312	0,2326
598,507	0,23177
598,701	0,23069
598,896	0,22962
599,091	0,22861
599,286	0,2276
599,481	0,22658
599,676	0,22555
599,87	0,22462
600,065	0,22365
600,26	0,22254
600,455	0,22147
600,65	0,22044
600,844	0,21936
601,039	0,21839
601,234	0,21745
601,428	0,21641
601,623	0,2154
601,818	0,21454
602,012	0,21362
602,207	0,21239
602,402	0,21125
602,596	0,21005
602,791	0,2088
602,985	0,20786
603,18	0,20662
603,374	0,20523
603,569	0,20399
603,763	0,20285
603,958	0,20164
604,152	0,20037
604,347	0,19912
604,541	0,19785
604,736	0,1966
604,93	0,19533
605,125	0,19379
605,319	0,19258
605,513	0,19144
605,708	0,19008
605,902	0,18873
606,096	0,18722
606,291	0,18577
606,485	0,18445
606,679	0,18313
606,874	0,18174
607,068	0,18043
607,262	0,17916
607,456	0,17778
607,65	0,1762
607,845	0,17494
608,039	0,17359
608,233	0,17224
608,427	0,17083
608,621	0,16955
608,815	0,16813
609,01	0,16693
609,204	0,16563
609,398	0,16446
609,592	0,16308
609,786	0,16206
609,98	0,16074
610,174	0,15932
610,368	0,15816
610,562	0,15679
610,756	0,15537
610,95	0,15417
611,144	0,15269
611,338	0,15123
611,532	0,14968
611,726	0,14826
611,919	0,14672
612,113	0,14542
612,307	0,14417
612,501	0,14266
612,695	0,14143
612,889	0,14014
613,082	0,13863
613,276	0,13732
613,47	0,13608
613,664	0,1348
613,857	0,13341
614,051	0,13217
614,245	0,13068
614,439	0,12931
614,632	0,12807
614,826	0,12665
615,02	0,12522
615,213	0,12413
615,407	0,12287
615,6	0,12155
615,794	0,12028
615,988	0,11905
616,181	0,11779
616,375	0,11663
616,568	0,1155
616,762	0,11437
616,955	0,11325
617,149	0,11212
617,342	0,11084
617,536	0,1097
617,729	0,10858
617,923	0,10751
618,116	0,10636
618,309	0,10511
618,503	0,104
618,696	0,10273
618,889	0,10153
619,083	0,10021
619,276	0,09899
619,469	0,0978
619,663	0,09671
619,856	0,09551
620,049	0,09438
620,242	0,09339
620,436	0,0923
620,629	0,09119
620,822	0,09015
621,015	0,08904
621,209	0,08818
621,402	0,08718
621,595	0,08613
621,788	0,0851
621,981	0,08414
622,174	0,08312
622,367	0,08201
622,56	0,08094
622,753	0,07999
622,946	0,079
623,139	0,07802
623,332	0,07704
623,525	0,07604
623,718	0,07512
623,911	0,07413
624,104	0,07318
624,297	0,07223
624,49	0,07159
624,683	0,07083
624,876	0,0699
625,069	0,06896
625,262	0,06817
625,454	0,06722
625,647	0,06648
625,84	0,0656
626,033	0,06481
626,226	0,06394
626,418	0,06321
626,611	0,0623
626,804	0,06141
626,997	0,06051
627,189	0,05983
627,382	0,05896
627,575	0,05827
627,767	0,05759
627,96	0,05694
628,153	0,0562
628,345	0,05557
628,538	0,05479
628,731	0,05396
628,923	0,05333
629,116	0,0528
629,308	0,05206
629,501	0,05145
629,693	0,05087
629,886	0,05016
630,078	0,04932
630,271	0,04873
630,463	0,04807
630,656	0,0475
630,848	0,04693
631,04	0,04637
631,233	0,04568
631,425	0,04517
631,617	0,04447
631,81	0,04387
632,002	0,04338
632,194	0,04299
632,387	0,04239
632,579	0,04187
632,771	0,04128
632,964	0,04078
633,156	0,04007
633,348	0,03955
633,54	0,03902
633,732	0,03853
633,925	0,03799
634,117	0,03753
634,309	0,03696
634,501	0,03646
634,693	0,03586
634,885	0,03536
635,077	0,03485
635,269	0,03443
635,462	0,03394
635,654	0,03351
635,846	0,03322
636,038	0,0327
636,23	0,03215
636,422	0,03171
636,614	0,0312
636,806	0,03095
636,997	0,03057
637,189	0,03018
637,381	0,02975
637,573	0,02934
637,765	0,02895
637,957	0,02843
638,149	0,02813
638,341	0,0278
638,532	0,02746
638,724	0,02716
638,916	0,02671
639,108	0,02631
639,299	0,02604
639,491	0,02564
639,683	0,02536
639,875	0,02501
640,066	0,02475
640,258	0,02434
640,45	0,0239
640,641	0,02361
640,833	0,02325
641,025	0,02297
641,216	0,02266
641,408	0,02219
641,599	0,02199
641,791	0,02178
641,982	0,02144
642,174	0,02112
642,366	0,0209
642,557	0,02069
642,748	0,02026
642,94	0,02002
643,131	0,01959
643,323	0,01929
643,514	0,01905
643,706	0,01885
643,897	0,01859
644,088	0,01838
644,28	0,01812
644,471	0,01786
644,662	0,0176
644,854	0,01747
645,045	0,01728
645,236	0,01711
645,428	0,01695
645,619	0,01674
645,81	0,01645
646,001	0,01606
646,193	0,01587
646,384	0,01559
646,575	0,01539
646,766	0,01518
646,957	0,015
647,148	0,01478
647,339	0,01464
647,531	0,01446
647,722	0,0142
647,913	0,01397
648,104	0,01389
648,295	0,01367
648,486	0,01346
648,677	0,0132
648,868	0,01302
649,059	0,01281
649,25	0,01257
649,441	0,01243
649,632	0,01211
649,823	0,01205
650,013	0,01192
650,204	0,01167
650,395	0,01139
650,586	0,01138
650,777	0,01125
650,968	0,01108
651,159	0,01101
651,349	0,01075
651,54	0,0104
651,731	0,01022
651,922	0,01009
652,112	0,00995
652,303	0,00986
652,494	0,00984
652,684	0,00961
652,875	0,00954
653,066	0,00944
653,256	0,00922
653,447	0,00917
653,638	0,00916
653,828	0,0091
654,019	0,00897
654,209	0,00891
654,4	0,00878
654,59	0,00871
654,781	0,00865
654,972	0,00847
655,162	0,00835
655,352	0,0082
655,543	0,00815
655,733	0,00801
655,924	0,00804
656,114	0,00782
656,305	0,00773
656,495	0,00763
656,685	0,00745
656,876	0,00729
657,066	0,00719
657,256	0,00715
657,447	0,0071
657,637	0,00698
657,827	0,00694
658,017	0,0068
658,208	0,00674
658,398	0,00652
658,588	0,00643
658,778	0,0064
658,968	0,00631
659,159	0,00629
659,349	0,00612
659,539	0,00594
659,729	0,00588
659,919	0,00585
660,109	0,00579
660,299	0,00579
660,489	0,00589
660,679	0,00583
660,869	0,00563
661,059	0,00555
661,249	0,00537
661,439	0,00521
661,629	0,00521
661,819	0,00513
662,009	0,00497
662,199	0,00489
662,389	0,00471
662,579	0,00446
662,769	0,00431
662,959	0,00428
663,149	0,00424
663,338	0,00427
663,528	0,00433
663,718	0,00427
663,908	0,00415
664,097	0,0041
664,287	0,00397
664,477	0,00398
664,667	0,00393
664,856	0,0039
665,046	0,00387
665,236	0,0038
665,425	0,00377
665,615	0,00375
665,805	0,00369
665,994	0,00379
666,184	0,00379
666,373	0,00379
666,563	0,00375
666,753	0,00379
666,942	0,00378
667,132	0,00365
667,321	0,00357
667,511	0,00356
667,7	0,00353
667,889	0,00331
668,079	0,00317
668,268	0,00313
668,458	0,00312
668,647	0,00309
668,836	0,00305
669,026	0,00303
669,215	0,00299
669,404	0,00314
669,594	0,00309
669,783	0,003
669,972	0,00316
670,162	0,00319
670,351	0,00313
670,54	0,0029
670,729	0,00281
670,919	0,00272
671,108	0,00263
671,297	0,00272
671,486	0,00254
671,675	0,00246
671,864	0,00243
672,053	0,00241
672,243	0,00239
672,432	0,00233
672,621	0,00241
672,81	0,00238
672,999	0,00237
673,188	0,00246
673,377	0,00238
673,566	0,00233
673,755	0,00233
673,944	0,00224
674,133	0,00209
674,322	0,00207
674,51	0,0021
674,699	0,00209
674,888	0,00207
675,077	0,00203
675,266	0,00188
675,455	0,00187
675,644	0,00183
675,832	0,0017
676,021	0,00172
676,21	0,00187
676,399	0,00176
676,587	0,00171
676,776	0,0017
676,965	0,00164
677,153	0,00163
677,342	0,00159
677,531	0,00155
677,719	0,00153
677,908	0,00154
678,097	0,00159
678,285	0,00148
678,474	0,00151
678,662	0,00149
678,851	0,0014
679,039	0,00131
679,228	0,00132
679,416	0,00134
679,605	0,00129
679,793	0,00134
679,982	0,00134
680,17	0,00119
680,359	0,0012
680,547	0,00117
680,736	0,00112
680,924	0,00119
681,112	0,00127
681,301	0,00125
681,489	0,00126
681,677	0,00125
681,866	0,00119
682,054	0,00109
682,242	0,00117
682,43	0,00119
682,619	0,0011
682,807	0,00103
682,995	0,0009
683,183	0,00077
683,371	0,00084
683,559	0,0008
683,748	0,00079
683,936	0,00076
684,124	0,00081
684,312	0,00069
684,5	0,00059
684,688	0,00071
684,876	0,00077
685,064	0,00081
685,252	0,00093
685,44	0,00079
685,628	0,0008
685,816	0,0008
686,004	0,00079
686,192	0,00077
686,38	0,00076
686,568	0,00077
686,756	0,0006
686,944	0,00049
687,131	0,00052
687,319	0,0005
687,507	0,00046
687,695	0,00035
687,883	0,00032
688,07	0,00029
688,258	0,00031
688,446	0,00034
688,634	0,00038
688,821	0,00035
689,009	0,00044
689,197	0,00043
689,384	0,00042
689,572	0,00046
689,76	0,00053
689,947	0,00054
690,135	0,00056
690,323	0,00061
690,51	0,00051
690,698	0,00048
690,885	0,00061
691,073	0,00049
691,26	0,00041
691,448	0,00042
691,635	0,00042
691,823	0,00044
692,01	0,0004
692,197	0,00032
692,385	0,00027
692,572	0,00031
692,76	0,00032
692,947	0,00032
693,134	0,00045
693,322	0,0004
693,509	0,00032
693,696	0,00022
693,884	0,00012
694,071	0,00009
694,258	0,00011
694,445	0,00012
694,633	0,00014
694,82	-0,00006
695,007	-0,00008
695,194	-0,00011
695,381	-0,0001
695,568	-0,00018
695,756	-0,00014
695,943	-0,00013
696,13	-0,00023
696,317	-0,00016
696,504	-0,00023
696,691	-0,00023
696,878	-0,00012
697,065	-0,00026
697,252	-0,00025
697,439	-0,00015
697,626	-0,00006
697,813	0,00001
698	-0
698,187	0,00001
698,374	-0,00005
698,561	-0,00012
698,747	-0,00018
698,934	-0,0002
699,121	-0,00012
699,308	-0,0003
699,495	-0,00037
699,682	-0,00035
699,868	-0,00049
700,055	-0,00054
700,242	-0,00053
700,429	-0,00061
700,615	-0,00062
700,802	-0,00063
700,989	-0,00059
701,175	-0,00074
701,362	-0,00057
701,549	-0,00056
701,735	-0,00068
701,922	-0,00065
702,108	-0,00054
702,295	-0,00058
702,482	-0,00054
702,668	-0,00052
702,855	-0,00054
703,041	-0,00053
703,228	-0,00041
703,414	-0,00047
703,601	-0,00053
703,787	-0,00047
703,973	-0,00054
704,16	-0,00067
704,346	-0,00059
704,533	-0,00057
704,719	-0,00056
704,905	-0,00064
705,092	-0,00076
705,278	-0,00075
705,464	-0,00074
705,65	-0,00066
705,837	-0,00074
706,023	-0,00071
706,209	-0,00054
706,395	-0,00051
706,582	-0,00054
706,768	-0,00051
706,954	-0,00041
707,14	-0,00037
707,326	-0,00047
707,512	-0,00055
707,698	-0,00056
707,885	-0,00059
708,071	-0,00062
708,257	-0,00072
708,443	-0,00075
708,629	-0,00072
708,815	-0,00075
709,001	-0,00084
709,187	-0,00092
709,373	-0,00087
709,559	-0,00092
709,745	-0,00098
709,93	-0,00104
710,116	-0,00097
710,302	-0,00101
710,488	-0,00102
710,674	-0,00103
710,86	-0,00107
711,046	-0,00098
711,231	-0,00096
711,417	-0,001
711,603	-0,00096
711,789	-0,00097
711,974	-0,00079
712,16	-0,00093
712,346	-0,00091
712,532	-0,00095
712,717	-0,00105
712,903	-0,00113
713,089	-0,00114
713,274	-0,00113
713,46	-0,00111
713,645	-0,00109
713,831	-0,00106
714,016	-0,0012
714,202	-0,0011
714,388	-0,00097
714,573	-0,00102
714,759	-0,0009
714,944	-0,00085
715,129	-0,00088
715,315	-0,00092
715,5	-0,00096
715,686	-0,00097
715,871	-0,00093
716,057	-0,00085
716,242	-0,00075
716,427	-0,0009
716,613	-0,00089
716,798	-0,00105
716,983	-0,00109
717,168	-0,00102
717,354	-0,00087
717,539	-0,0008
717,724	-0,00073
717,909	-0,00067
718,095	-0,00065
718,28	-0,00082
718,465	-0,00086
718,65	-0,00077
718,835	-0,0008
719,02	-0,0007
719,206	-0,00082
719,391	-0,00093
719,576	-0,00107
719,761	-0,00103
719,946	-0,00109
720,131	-0,00117
720,316	-0,00109
720,501	-0,00103
720,686	-0,00103
720,871	-0,00084
721,056	-0,00088
721,241	-0,00094
721,426	-0,0009
721,61	-0,00079
721,795	-0,0009
721,98	-0,00101
722,165	-0,0009
722,35	-0,00081
722,535	-0,00088
722,719	-0,00097
722,904	-0,00107
723,089	-0,00114
723,274	-0,00111
723,458	-0,00119
723,643	-0,00117
723,828	-0,00121
724,013	-0,00119
724,197	-0,00121
724,382	-0,00131
724,567	-0,00132
724,751	-0,0013
724,936	-0,00128
725,12	-0,00122
725,305	-0,00115
725,489	-0,00113
725,674	-0,00117
725,859	-0,00108
726,043	-0,001
726,228	-0,00105
726,412	-0,00099
726,596	-0,00098
726,781	-0,00088
726,965	-0,00093
727,15	-0,00084
727,334	-0,00093
727,518	-0,00093
727,703	-0,0009
727,887	-0,00092
728,072	-0,00096
728,256	-0,00091
728,44	-0,001
728,624	-0,00097
728,809	-0,00108
728,993	-0,00103
729,177	-0,00112
729,361	-0,00098
729,546	-0,00094
729,73	-0,00093
729,914	-0,00113
730,098	-0,00123
730,282	-0,00132
730,466	-0,00134
730,65	-0,0013
730,834	-0,00129
731,019	-0,00142
731,203	-0,00148
731,387	-0,00148
731,571	-0,00162
731,755	-0,00167
731,939	-0,00153
732,123	-0,00149
732,306	-0,0015
732,49	-0,00141
732,674	-0,0014
732,858	-0,00137
733,042	-0,00129
733,226	-0,00113
733,41	-0,00123
733,594	-0,0011
733,778	-0,00113
733,961	-0,00112
734,145	-0,00109
734,329	-0,00101
734,513	-0,00107
734,696	-0,00113
734,88	-0,00118
735,064	-0,00116
735,247	-0,0013
735,431	-0,00128
735,615	-0,00139
735,798	-0,00132
735,982	-0,0012
736,166	-0,00112
736,349	-0,0012
736,533	-0,00118
736,716	-0,00118
736,9	-0,00117
737,083	-0,00121
737,267	-0,00124
737,45	-0,00122
737,634	-0,00115
737,817	-0,00116
738,001	-0,00126
738,184	-0,00135
738,368	-0,00136
738,551	-0,00143
738,734	-0,00143
738,918	-0,0014
739,101	-0,00124
739,284	-0,00129
739,468	-0,00133
739,651	-0,00131
739,834	-0,00136
740,018	-0,00151
740,201	-0,00152
740,384	-0,00146
740,567	-0,00141
740,75	-0,00135
740,934	-0,00145
741,117	-0,00156
741,3	-0,00144
741,483	-0,00138
741,666	-0,00144
741,849	-0,00133
742,032	-0,00125
742,215	-0,00133
742,399	-0,00126
742,582	-0,00124
742,765	-0,00123
742,948	-0,00111
743,131	-0,00119
743,314	-0,00132
743,496	-0,00137
743,679	-0,00132
743,862	-0,00135
744,045	-0,00131
744,228	-0,00124
744,411	-0,00145
744,594	-0,00145
744,777	-0,00152
744,959	-0,00157
745,142	-0,00135
745,325	-0,00119
745,508	-0,00127
745,691	-0,00118
745,873	-0,00129
746,056	-0,00131
746,239	-0,0013
746,421	-0,00107
746,604	-0,00111
746,787	-0,00107
746,969	-0,00108
747,152	-0,00126
747,335	-0,0014
747,517	-0,00131
747,7	-0,00136
747,882	-0,00134
748,065	-0,00148
748,247	-0,00146
748,43	-0,00163
748,612	-0,00169
748,795	-0,00168
748,977	-0,00166
749,16	-0,00168
749,342	-0,00156
749,524	-0,0016
749,707	-0,00166
749,889	-0,00158
750,072	-0,00154
750,254	-0,00163
750,436	-0,00164
750,619	-0,00157
750,801	-0,00163
750,983	-0,00171
751,165	-0,0017
751,348	-0,0017
751,53	-0,0018
751,712	-0,00179
751,894	-0,00198
752,076	-0,00181
752,259	-0,00178
752,441	-0,00178
752,623	-0,00179
752,805	-0,00183
752,987	-0,00184
753,169	-0,00179
753,351	-0,00189
753,533	-0,00178
753,715	-0,00181
753,897	-0,00176
754,079	-0,00179
754,261	-0,00176
754,443	-0,00179
754,625	-0,0018
754,807	-0,00179
754,989	-0,0017
755,171	-0,00176
755,353	-0,00173
755,534	-0,00184
755,716	-0,00185
755,898	-0,00191
756,08	-0,002
756,262	-0,00207
756,443	-0,00211
756,625	-0,00213
756,807	-0,00217
756,989	-0,00229
757,17	-0,00232
757,352	-0,00231
757,534	-0,00219
757,715	-0,0022
757,897	-0,00208
758,079	-0,00208
758,26	-0,00206
758,442	-0,00194
758,623	-0,00195
758,805	-0,00187
758,987	-0,00184
759,168	-0,00188
759,35	-0,00198
759,531	-0,00192
759,713	-0,00196
759,894	-0,00207
760,075	-0,00211
760,257	-0,00216
760,438	-0,00227
760,62	-0,0023
760,801	-0,00238
760,982	-0,00234
761,164	-0,0023
761,345	-0,00231
761,526	-0,00242
761,708	-0,00235
761,889	-0,00226
762,07	-0,00226
762,251	-0,00216
762,433	-0,00206
762,614	-0,00214
762,795	-0,00217
762,976	-0,00218
763,157	-0,00208
763,338	-0,00212
763,52	-0,00211
763,701	-0,00223
763,882	-0,00231
764,063	-0,00225
764,244	-0,00225
764,425	-0,00228
764,606	-0,00225
764,787	-0,00219
764,968	-0,00223
765,149	-0,00245
765,33	-0,0023
765,511	-0,00238
765,692	-0,00231
765,873	-0,00225
766,053	-0,00228
766,234	-0,00232
766,415	-0,00233
766,596	-0,00234
766,777	-0,00236
766,958	-0,00241
767,138	-0,0023
767,319	-0,00237
767,5	-0,00232
767,681	-0,00238
767,861	-0,00233
768,042	-0,00236
768,223	-0,00232
768,403	-0,00238
768,584	-0,00231
768,765	-0,00227
768,945	-0,00224
769,126	-0,00222
769,307	-0,00217
769,487	-0,00212
769,668	-0,00204
769,848	-0,00213
770,029	-0,00214
770,209	-0,00231
770,39	-0,00237
770,57	-0,00235
770,751	-0,00241
770,931	-0,00236
771,111	-0,00248
771,292	-0,00249
771,472	-0,00252
771,653	-0,00259
771,833	-0,00259
772,013	-0,00259
772,194	-0,00242
772,374	-0,00239
772,554	-0,00239
772,734	-0,00234
772,915	-0,00231
773,095	-0,00225
773,275	-0,00227
773,455	-0,00239
773,635	-0,00256
773,816	-0,00253
773,996	-0,00245
774,176	-0,00235
774,356	-0,00232
774,536	-0,00236
774,716	-0,00241
774,896	-0,00248
775,076	-0,00249
775,256	-0,00247
775,436	-0,00236
775,616	-0,00207
775,796	-0,00208
775,976	-0,00217
776,156	-0,00234
776,336	-0,00229
776,516	-0,00233
776,696	-0,00238
776,876	-0,00228
777,056	-0,00231
777,235	-0,00241
777,415	-0,00238
777,595	-0,00254
777,775	-0,00253
777,955	-0,00254
778,134	-0,00256
778,314	-0,00253
778,494	-0,00249
778,674	-0,00237
778,853	-0,00248
779,033	-0,00241
779,213	-0,00238
779,392	-0,00244
779,572	-0,0024
779,751	-0,00248
779,931	-0,00246
780,111	-0,00248
780,29	-0,00255
780,47	-0,00259
780,649	-0,0027
780,829	-0,00263
781,008	-0,00261
781,188	-0,00254
781,367	-0,00247
781,546	-0,00239
781,726	-0,00238
781,905	-0,0024
782,085	-0,00236
782,264	-0,00236
782,443	-0,00235
782,623	-0,00225
782,802	-0,00244
782,981	-0,00251
783,161	-0,00261
783,34	-0,00262
783,519	-0,00264
783,698	-0,00254
783,878	-0,00252
784,057	-0,00258
784,236	-0,00246
784,415	-0,00245
784,594	-0,00251
784,773	-0,00233
784,952	-0,00223
785,132	-0,00228
785,311	-0,00223
785,49	-0,00224
785,669	-0,00236
785,848	-0,00233
786,027	-0,00234
786,206	-0,00236
786,385	-0,0024
786,564	-0,00239
786,743	-0,00243
786,922	-0,00246
787,1	-0,00238
787,279	-0,00252
787,458	-0,00254
787,637	-0,00239
787,816	-0,00233
787,995	-0,00236
788,174	-0,00244
788,352	-0,0024
788,531	-0,00242
788,71	-0,00244
788,889	-0,00251
789,067	-0,00253
789,246	-0,00248
789,425	-0,00239
789,603	-0,00247
789,782	-0,00261
789,961	-0,00254
790,139	-0,00243
790,318	-0,00251
790,496	-0,00243
790,675	-0,00233
790,853	-0,00234
791,032	-0,00241
791,211	-0,00238
791,389	-0,0026
791,568	-0,00257
791,746	-0,00249
791,924	-0,00243
792,103	-0,00253
792,281	-0,00257
792,46	-0,00262
792,638	-0,00272
792,816	-0,00268
792,995	-0,00248
793,173	-0,00244
793,351	-0,00239
793,53	-0,00235
793,708	-0,00237
793,886	-0,00238
794,064	-0,0024
794,243	-0,00218
794,421	-0,00217
794,599	-0,00218
794,777	-0,00221
794,955	-0,00233
795,133	-0,00248
795,312	-0,00251
795,49	-0,00264
795,668	-0,00254
795,846	-0,00263
796,024	-0,00259
796,202	-0,00271
796,38	-0,00279
796,558	-0,00284
796,736	-0,00295
796,914	-0,00294
797,092	-0,00295
797,27	-0,00293
797,448	-0,00292
797,626	-0,00308
797,803	-0,00311
797,981	-0,00319
798,159	-0,00322
798,337	-0,00328
798,515	-0,00332
798,693	-0,00331
798,87	-0,00344
799,048	-0,00344
799,226	-0,00345
799,404	-0,00345
799,581	-0,00345
799,759	-0,00347
799,937	-0,00351
800,114	-0,00354
800,292	-0,00345
800,469	-0,0033
800,647	-0,00334
800,825	-0,00331
801,002	-0,00327
801,18	-0,00323
801,357	-0,00324
801,535	-0,0032
801,712	-0,00319
801,89	-0,00318
802,067	-0,00317
802,245	-0,00314
802,422	-0,00323
802,6	-0,00316
802,777	-0,00308
802,954	-0,00311
803,132	-0,00293
803,309	-0,00289
803,486	-0,0029
803,664	-0,00285
803,841	-0,00275
804,018	-0,00279
804,195	-0,0028
804,373	-0,0028
804,55	-0,00266
804,727	-0,00271
804,904	-0,00266
805,081	-0,00283
805,259	-0,00282
805,436	-0,00294
805,613	-0,00294
805,79	-0,00308
805,967	-0,00305
806,144	-0,0031
806,321	-0,00319
806,498	-0,00329
806,675	-0,00316
806,852	-0,00327
807,029	-0,00323
807,206	-0,00327
807,383	-0,00318
807,56	-0,00322
807,737	-0,00318
807,914	-0,00322
808,091	-0,00319
808,268	-0,00293
808,444	-0,00291
808,621	-0,00297
808,798	-0,00316
808,975	-0,00308
809,152	-0,00319
809,328	-0,00314
809,505	-0,00314
809,682	-0,00316
809,858	-0,00324
810,035	-0,00321
810,212	-0,00348
810,388	-0,00354
810,565	-0,00346
810,742	-0,0033
810,918	-0,00345
811,095	-0,00341
811,271	-0,00334
811,448	-0,00327
811,625	-0,00326
811,801	-0,00316
811,978	-0,00308
812,154	-0,003
812,33	-0,00301
812,507	-0,003
812,683	-0,00297
812,86	-0,00287
813,036	-0,00289
813,212	-0,00292
813,389	-0,00313
813,565	-0,00322
813,741	-0,00316
813,918	-0,00337
814,094	-0,00325
814,27	-0,0033
814,447	-0,00349
814,623	-0,00336
814,799	-0,00339
814,975	-0,00325
815,151	-0,0033
815,328	-0,00321
815,504	-0,00316
815,68	-0,00318
815,856	-0,00307
816,032	-0,00299
816,208	-0,00293
816,384	-0,0029
816,56	-0,00304
816,736	-0,00317
816,912	-0,00319
817,088	-0,00317
817,264	-0,00317
817,44	-0,0032
817,616	-0,00308
817,792	-0,00311
817,968	-0,00324
818,144	-0,00301
818,32	-0,00293
818,495	-0,00274
818,671	-0,00262
818,847	-0,00265
819,023	-0,00269
819,199	-0,0025
819,374	-0,00228
819,55	-0,00259
819,726	-0,00258
819,902	-0,00254
820,077	-0,00265
820,253	-0,0027
820,429	-0,00279
820,604	-0,00271
820,78	-0,00273
820,956	-0,00266
821,131	-0,0029
821,307	-0,00291
821,482	-0,00282
821,658	-0,00268
821,833	-0,00287
822,009	-0,00312
822,184	-0,00311
822,36	-0,00326
822,535	-0,00336
822,711	-0,00336
822,886	-0,0034
823,061	-0,00333
823,237	-0,00333
823,412	-0,00327
823,587	-0,00349
823,763	-0,00355
823,938	-0,00333
824,113	-0,0034
824,289	-0,00333
824,464	-0,00333
824,639	-0,00317
824,814	-0,0033
824,99	-0,00335
825,165	-0,00337
825,34	-0,00337
825,515	-0,00316
825,69	-0,00308
825,865	-0,00319
826,04	-0,00306
826,215	-0,00279
826,39	-0,00271
826,566	-0,00282
826,741	-0,00264
826,916	-0,00255
827,091	-0,00258
827,265	-0,00255
827,44	-0,00269
827,615	-0,00255
827,79	-0,00246
827,965	-0,00255
828,14	-0,00262
828,315	-0,00261
828,49	-0,00262
828,665	-0,00268
828,839	-0,00268
829,014	-0,00274
829,189	-0,00281
829,364	-0,00278
829,538	-0,0027
829,713	-0,0027
829,888	-0,00266
830,063	-0,00278
830,237	-0,00296
830,412	-0,0029
830,587	-0,00287
830,761	-0,00285
830,936	-0,00274
831,11	-0,00267
831,285	-0,00285
831,459	-0,00293
831,634	-0,003
831,809	-0,003
831,983	-0,00311
832,157	-0,0029
832,332	-0,00319
832,506	-0,00322
832,681	-0,00333
832,855	-0,00357
833,03	-0,00378
833,204	-0,00366
833,378	-0,00354
833,553	-0,00364
833,727	-0,00355
833,901	-0,00356
834,076	-0,00365
834,25	-0,00352
834,424	-0,00347
834,598	-0,00338
834,773	-0,00318
834,947	-0,00298
835,121	-0,00285
835,295	-0,00291
835,469	-0,00282
835,643	-0,00297
835,817	-0,00283
835,991	-0,00307
836,166	-0,00317
836,34	-0,00307
836,514	-0,00306
836,688	-0,00293
836,862	-0,00288
837,036	-0,00301
837,21	-0,003
837,384	-0,00293
837,557	-0,00291
837,731	-0,00296
837,905	-0,0026
838,079	-0,00243
838,253	-0,00273
838,427	-0,00274
838,601	-0,00306
838,774	-0,00323
838,948	-0,00308
839,122	-0,00309
839,296	-0,00309
839,469	-0,00295
839,643	-0,00296
839,817	-0,00323
839,991	-0,00323
840,164	-0,00304
840,338	-0,00323
840,512	-0,00297
840,685	-0,00279
840,859	-0,00297
841,032	-0,00296
841,206	-0,00295
841,379	-0,00317
841,553	-0,00318
841,726	-0,00286
841,9	-0,00288
842,073	-0,00276
842,247	-0,0025
842,42	-0,00268
842,594	-0,00281
842,767	-0,00278
842,94	-0,0029
843,114	-0,00279
843,287	-0,00265
843,46	-0,0026
843,634	-0,00299
843,807	-0,00287
843,98	-0,00302
844,154	-0,00309
844,327	-0,00302
844,5	-0,00303
844,673	-0,00278
844,846	-0,00281
845,02	-0,0031
845,193	-0,00331
845,366	-0,0035
845,539	-0,00342
845,712	-0,00342
845,885	-0,00365
846,058	-0,00365
846,231	-0,00378
846,404	-0,00371
846,577	-0,00386
846,75	-0,00381
846,923	-0,00357
847,096	-0,0034
847,269	-0,00318
847,442	-0,00299
847,615	-0,00313
847,788	-0,00302
847,961	-0,00296
848,133	-0,00282
848,306	-0,00284
848,479	-0,00272
848,652	-0,00278
848,825	-0,00288
848,997	-0,00281
849,17	-0,00292
849,343	-0,00288
849,515	-0,00284
849,688	-0,00281
849,861	-0,00278
850,033	-0,00284
850,206	-0,00282
850,379	-0,00312
850,551	-0,00307
850,724	-0,00305
850,896	-0,00319
851,069	-0,00295
851,241	-0,00311
851,414	-0,00316
851,586	-0,00322
851,759	-0,00344
851,931	-0,0034
852,104	-0,00347
852,276	-0,0033
852,449	-0,00336
852,621	-0,00338
852,793	-0,00339
852,966	-0,00348
853,138	-0,00342
853,31	-0,00358
853,483	-0,00342
853,655	-0,0033
853,827	-0,00337
853,999	-0,0033
854,172	-0,00342
854,344	-0,00327
854,516	-0,0033
854,688	-0,0032
854,86	-0,00349
855,032	-0,0035
855,204	-0,00336
855,377	-0,00341
855,549	-0,00335
855,721	-0,0034
855,893	-0,00351
856,065	-0,00346
856,237	-0,00356
856,409	-0,00353
856,581	-0,00358
856,753	-0,00332
856,924	-0,00336
857,096	-0,0033
857,268	-0,00319
857,44	-0,00318
857,612	-0,00304
857,784	-0,0031
857,956	-0,00309
858,127	-0,00315
858,299	-0,00319
858,471	-0,00305
858,643	-0,00321
858,814	-0,0031
858,986	-0,00304
859,158	-0,00297
859,33	-0,00302
859,501	-0,00317
859,673	-0,00314
859,844	-0,00301
860,016	-0,00311
860,188	-0,00308
860,359	-0,00336
860,531	-0,00343
860,702	-0,00349
860,874	-0,00377
861,045	-0,004
861,217	-0,00418
861,388	-0,00407
861,56	-0,00387
861,731	-0,00404
861,902	-0,00389
862,074	-0,0038
862,245	-0,00355
862,417	-0,00345
862,588	-0,00362
862,759	-0,00376
862,931	-0,00395
863,102	-0,00369
863,273	-0,00382
863,444	-0,00405
863,616	-0,00394
863,787	-0,00399
863,958	-0,00426
864,129	-0,00432
864,3	-0,00433
864,471	-0,00441
864,642	-0,00413
864,814	-0,0041
864,985	-0,00424
865,156	-0,00432
865,327	-0,0042
865,498	-0,00415
865,669	-0,00422
865,84	-0,00391
866,011	-0,00405
866,182	-0,00402
866,353	-0,00394
866,523	-0,00403
866,694	-0,00392
866,865	-0,00371
867,036	-0,00352
867,207	-0,00367
867,378	-0,004
867,549	-0,00396
867,719	-0,00421
867,89	-0,00425
868,061	-0,00421
868,232	-0,00412
868,402	-0,00418
868,573	-0,00411
868,744	-0,00434
868,914	-0,00447
869,085	-0,0047
869,256	-0,00458
869,426	-0,00472
869,597	-0,00451
869,767	-0,00429
869,938	-0,00435
870,108	-0,00408
870,279	-0,00395
870,449	-0,00414
870,62	-0,00413
870,79	-0,00401
870,961	-0,00376
871,131	-0,00363
871,302	-0,00327
871,472	-0,00343
871,642	-0,00366
871,813	-0,00363
871,983	-0,00371
872,153	-0,00361
872,324	-0,00352
872,494	-0,00362
872,664	-0,00368
872,835	-0,00334
873,005	-0,00331
873,175	-0,00361
873,345	-0,00357
873,515	-0,00347
873,685	-0,00358
873,856	-0,00382
874,026	-0,00371
874,196	-0,00352
874,366	-0,00363
874,536	-0,0035
874,706	-0,00383
874,876	-0,00416
875,046	-0,00444
875,216	-0,00453
875,386	-0,00416
875,556	-0,00377
875,726	-0,00392
875,896	-0,00424
876,066	-0,00431
876,236	-0,00437
876,405	-0,00469
876,575	-0,00461
876,745	-0,00421
876,915	-0,00366
877,085	-0,00348
877,254	-0,00396
877,424	-0,00407
877,594	-0,00377
877,764	-0,00367
877,933	-0,00359
878,103	-0,00334
878,273	-0,003
878,442	-0,00302
878,612	-0,00322
878,781	-0,00355
878,951	-0,00337
879,121	-0,0035
879,29	-0,00381
879,46	-0,00387
879,629	-0,00359
879,799	-0,00379
879,968	-0,00348
880,138	-0,00349
880,307	-0,00338
880,476	-0,00333
880,646	-0,00353
880,815	-0,00419
880,985	-0,00397
881,154	-0,00395
881,323	-0,00399
881,493	-0,00439
881,662	-0,00458
881,831	-0,00457
882	-0,00471
882,17	-0,00464
882,339	-0,00482
882,508	-0,00447
882,677	-0,00402
882,846	-0,00406
883,016	-0,00411
883,185	-0,00393
883,354	-0,0038
883,523	-0,00369
883,692	-0,00382
883,861	-0,00387
884,03	-0,00444
884,199	-0,00426
884,368	-0,00419
884,537	-0,00435
884,706	-0,0043
884,875	-0,00413
885,044	-0,00414
885,213	-0,00385
885,382	-0,00395
885,55	-0,00434
885,719	-0,00454
885,888	-0,00421
886,057	-0,00458
886,226	-0,00473
886,395	-0,00447
886,563	-0,00471
886,732	-0,0047
886,901	-0,00486
887,069	-0,00524
887,238	-0,00516
887,407	-0,00452
887,575	-0,00394
887,744	-0,00379
887,913	-0,00354
888,081	-0,00306
888,25	-0,00312
888,418	-0,00285
888,587	-0,00291
888,755	-0,00319
888,924	-0,00294
889,092	-0,00295
889,261	-0,00358
889,429	-0,00398
889,598	-0,00406
889,766	-0,00371
889,935	-0,00409
890,103	-0,00431
890,271	-0,00452
890,44	-0,00471
890,608	-0,00469
890,776	-0,00483
890,944	-0,00467
891,113	-0,00438
891,281	-0,00433
891,449	-0,00449
891,617	-0,00493
891,786	-0,00515
891,954	-0,00503
892,122	-0,00455
892,29	-0,00415
892,458	-0,00433
892,626	-0,00438
892,794	-0,00447
892,962	-0,00449
893,13	-0,0045
893,298	-0,00424
893,466	-0,0039
