Data from Chemiepractica_Absorbance__24__11-43-13-090.txt Node

Date: Mon Dec 09 11:43:13 CET 2024
User: r0948668
Spectrometer: USB4F07138
Trigger mode: 4
Integration Time (sec): 6,000000E-3
Scans to average: 20
Electric dark correction enabled: true
Nonlinearity correction enabled: false
Boxcar width: 5
XAxis mode: Wavelengths
Number of Pixels in Spectrum: 3648
>>>>>Begin Spectral Data<<<<<
176,779	-0
176,999	-0
177,218	-0
177,438	-0,67316
177,658	-0,2413
177,878	0,09847
178,097	0,09361
178,317	-0,1405
178,537	-0,23911
178,757	0,04268
178,976	0,09131
179,196	-0
179,416	-0
179,635	-0,0001
179,855	0,04088
180,075	0,02106
180,294	0,01439
180,514	0,01213
180,734	0,04102
180,953	0,04292
181,173	0,0482
181,392	0,04915
181,612	0,04795
181,832	0,07503
182,051	0,06238
182,271	0,05878
182,49	0,0596
182,71	0,04571
182,929	0,04962
183,149	0,03983
183,368	0,04566
183,588	0,03243
183,807	0,03702
184,027	0,05433
184,246	0,0446
184,466	0,04377
184,685	0,04757
184,905	0,04761
185,124	0,06103
185,344	0,0539
185,563	0,06471
185,782	0,06799
186,002	0,07734
186,221	0,06883
186,44	0,04399
186,66	0,05339
186,879	0,08808
187,099	0,08555
187,318	0,07587
187,537	0,06852
187,756	0,06916
187,976	0,06053
188,195	0,05519
188,414	0,06269
188,634	0,07153
188,853	0,0805
189,072	0,07297
189,291	0,04302
189,511	0,04862
189,73	0,06615
189,949	0,07415
190,168	0,07605
190,387	0,0752
190,607	0,07384
190,826	0,06624
191,045	0,06059
191,264	0,0629
191,483	0,05576
191,702	0,06251
191,921	0,05055
192,141	0,04913
192,36	0,04584
192,579	0,05133
192,798	0,05859
193,017	0,05761
193,236	0,06741
193,455	0,07628
193,674	0,07086
193,893	0,07477
194,112	0,07442
194,331	0,07721
194,55	0,0714
194,769	0,0585
194,988	0,04141
195,207	0,04607
195,426	0,04437
195,645	0,03519
195,864	0,02821
196,083	0,03264
196,302	0,0207
196,521	0,02643
196,739	0,02003
196,958	0,02403
197,177	0,03959
197,396	0,05381
197,615	0,03776
197,834	0,0354
198,053	0,0363
198,271	0,03404
198,49	0,0392
198,709	0,04465
198,928	0,03968
199,147	0,049
199,365	0,06301
199,584	0,05589
199,803	0,03702
200,022	0,05114
200,24	0,03935
200,459	0,03867
200,678	0,04062
200,897	0,03465
201,115	0,03678
201,334	0,03353
201,553	0,03118
201,771	0,01085
201,99	0,00893
202,209	0,03161
202,427	0,02234
202,646	0,04181
202,864	0,03846
203,083	0,03703
203,302	0,03373
203,52	0,04856
203,739	0,05992
203,957	0,0603
204,176	0,06998
204,394	0,07307
204,613	0,08227
204,831	0,09511
205,05	0,10316
205,268	0,11155
205,487	0,10838
205,705	0,10803
205,924	0,10067
206,142	0,09513
206,361	0,09957
206,579	0,09146
206,798	0,09392
207,016	0,07271
207,234	0,06043
207,453	0,0492
207,671	0,05634
207,89	0,07035
208,108	0,06684
208,326	0,05997
208,545	0,05524
208,763	0,05057
208,981	0,05376
209,2	0,03812
209,418	0,0447
209,636	0,03215
209,855	0,0373
210,073	0,01222
210,291	-0,01153
210,509	-0,01643
210,728	-0,01401
210,946	-0,00952
211,164	-0,01744
211,382	-0,01938
211,6	-0,00213
211,819	-0,005
212,037	0,00566
212,255	-0,00018
212,473	0,0177
212,691	0,02427
212,909	0,04455
213,128	0,04443
213,346	0,039
213,564	0,06214
213,782	0,06808
214	0,07128
214,218	0,06716
214,436	0,07926
214,654	0,06949
214,872	0,05461
215,09	0,05078
215,308	0,04915
215,526	0,05662
215,744	0,05601
215,962	0,03456
216,18	0,01962
216,398	0,01566
216,616	0,01818
216,834	-0,00065
217,052	0,01093
217,27	0,01446
217,488	0,02402
217,706	0,01915
217,924	0,01317
218,142	0,01474
218,36	0,02684
218,578	0,03844
218,795	0,02301
219,013	0,02055
219,231	0,01492
219,449	0,01206
219,667	0,00622
219,885	0,01375
220,102	0,01914
220,32	0,01437
220,538	0,02683
220,756	0,01478
220,973	0,01909
221,191	0,02847
221,409	0,03114
221,627	0,04152
221,844	0,05391
222,062	0,06777
222,28	0,07454
222,497	0,0629
222,715	0,06701
222,933	0,04727
223,15	0,04662
223,368	0,0414
223,586	0,05591
223,803	0,05086
224,021	0,05288
224,239	0,04489
224,456	0,03665
224,674	0,02111
224,891	0,0198
225,109	0,00991
225,326	0,0177
225,544	0,02526
225,762	0,01567
225,979	0,00803
226,197	0,01296
226,414	0,01052
226,632	-0,00044
226,849	-0,00468
227,066	0,00907
227,284	0,01351
227,501	0,03948
227,719	0,05474
227,936	0,05388
228,154	0,06461
228,371	0,06295
228,588	0,06569
228,806	0,07063
229,023	0,08353
229,241	0,09575
229,458	0,07965
229,675	0,09105
229,893	0,0753
230,11	0,06491
230,327	0,06423
230,545	0,07188
230,762	0,06925
230,979	0,07396
231,196	0,07589
231,414	0,07001
231,631	0,05806
231,848	0,05243
232,065	0,03519
232,283	0,02397
232,5	0,02012
232,717	0,01749
232,934	0,01024
233,151	0,01101
233,368	-0,01176
233,586	-0,01811
233,803	-0,01574
234,02	-0,00914
234,237	-0,00228
234,454	0,00567
234,671	0,03209
234,888	0,03525
235,105	0,03511
235,322	0,04165
235,54	0,03792
235,757	0,06393
235,974	0,07895
236,191	0,08327
236,408	0,08219
236,625	0,08416
236,842	0,07074
237,059	0,07255
237,276	0,0606
237,493	0,067
237,71	0,06465
237,926	0,06404
238,143	0,05553
238,36	0,04295
238,577	0,03403
238,794	0,03297
239,011	0,04102
239,228	0,05345
239,445	0,03051
239,662	0,04473
239,878	0,04151
240,095	0,04097
240,312	0,05243
240,529	0,0553
240,746	0,06205
240,963	0,06811
241,179	0,07264
241,396	0,07945
241,613	0,06898
241,83	0,07012
242,046	0,06246
242,263	0,0689
242,48	0,06383
242,697	0,06121
242,913	0,05392
243,13	0,03765
243,347	0,0313
243,563	0,02982
243,78	0,01379
243,997	0,0311
244,213	0,04078
244,43	0,05366
244,646	0,06041
244,863	0,07044
245,08	0,07172
245,296	0,07722
245,513	0,07594
245,729	0,07668
245,946	0,08364
246,162	0,09742
246,379	0,09702
246,595	0,09479
246,812	0,07684
247,028	0,07092
247,245	0,06721
247,461	0,05417
247,678	0,04789
247,894	0,05899
248,111	0,06288
248,327	0,05992
248,544	0,04658
248,76	0,04443
248,976	0,04247
249,193	0,05393
249,409	0,04857
249,626	0,04263
249,842	0,05813
250,058	0,06716
250,275	0,06861
250,491	0,06454
250,707	0,06784
250,924	0,07554
251,14	0,07709
251,356	0,08343
251,572	0,07641
251,789	0,07875
252,005	0,08394
252,221	0,06313
252,437	0,05627
252,654	0,05315
252,87	0,05617
253,086	0,05124
253,302	0,05537
253,518	0,05609
253,735	0,04699
253,951	0,055
254,167	0,05339
254,383	0,04698
254,599	0,06045
254,815	0,06761
255,031	0,05687
255,247	0,05137
255,463	0,04526
255,68	0,05441
255,896	0,06043
256,112	0,0589
256,328	0,05167
256,544	0,04594
256,76	0,05328
256,976	0,04373
257,192	0,04325
257,408	0,06195
257,624	0,06255
257,84	0,07286
258,056	0,06734
258,272	0,06251
258,487	0,06995
258,703	0,06574
258,919	0,07773
259,135	0,07438
259,351	0,08455
259,567	0,08897
259,783	0,07907
259,999	0,08653
260,215	0,08137
260,43	0,06242
260,646	0,05984
260,862	0,05281
261,078	0,05427
261,294	0,03382
261,509	0,04896
261,725	0,05671
261,941	0,04561
262,157	0,05052
262,372	0,05081
262,588	0,04235
262,804	0,05817
263,019	0,05378
263,235	0,05716
263,451	0,06452
263,667	0,08419
263,882	0,07779
264,098	0,07521
264,313	0,07527
264,529	0,07734
264,745	0,09041
264,96	0,09457
265,176	0,08855
265,391	0,09448
265,607	0,09376
265,823	0,09617
266,038	0,08695
266,254	0,07777
266,469	0,08652
266,685	0,08513
266,9	0,07625
267,116	0,06571
267,331	0,07817
267,547	0,08183
267,762	0,07112
267,978	0,07816
268,193	0,07464
268,408	0,08491
268,624	0,09313
268,839	0,08056
269,055	0,08274
269,27	0,08439
269,485	0,08056
269,701	0,07578
269,916	0,06716
270,132	0,08571
270,347	0,09152
270,562	0,09008
270,777	0,08232
270,993	0,0807
271,208	0,07505
271,423	0,07822
271,639	0,08384
271,854	0,0825
272,069	0,06713
272,284	0,07312
272,5	0,06036
272,715	0,05155
272,93	0,04638
273,145	0,037
273,36	0,03836
273,576	0,05461
273,791	0,05235
274,006	0,04896
274,221	0,04879
274,436	0,05876
274,651	0,0563
274,866	0,06796
275,081	0,07191
275,296	0,07363
275,512	0,07735
275,727	0,08777
275,942	0,07541
276,157	0,0711
276,372	0,07366
276,587	0,08115
276,802	0,08276
277,017	0,08482
277,232	0,07398
277,447	0,06765
277,662	0,06706
277,877	0,06864
278,092	0,05374
278,306	0,05475
278,521	0,06304
278,736	0,06288
278,951	0,05636
279,166	0,04325
279,381	0,03776
279,596	0,03218
279,811	0,03234
280,025	0,03107
280,24	0,03025
280,455	0,03214
280,67	0,02993
280,885	0,01819
281,099	0,00536
281,314	0,00669
281,529	0,02059
281,744	0,03215
281,959	0,03605
282,173	0,03826
282,388	0,05285
282,603	0,05425
282,817	0,06131
283,032	0,06761
283,247	0,06937
283,461	0,08516
283,676	0,07299
283,891	0,07475
284,105	0,07362
284,32	0,08274
284,535	0,08119
284,749	0,07808
284,964	0,09241
285,178	0,08402
285,393	0,08108
285,607	0,08138
285,822	0,07624
286,036	0,09186
286,251	0,08132
286,465	0,08251
286,68	0,07444
286,894	0,07244
287,109	0,0704
287,323	0,0451
287,538	0,04913
287,752	0,04511
287,967	0,04899
288,181	0,0426
288,396	0,0417
288,61	0,05573
288,824	0,05867
289,039	0,06292
289,253	0,0617
289,467	0,05456
289,682	0,0636
289,896	0,05935
290,11	0,06615
290,325	0,07168
290,539	0,07376
290,753	0,06862
290,968	0,0616
291,182	0,05121
291,396	0,04471
291,61	0,04416
291,825	0,04803
292,039	0,04813
292,253	0,05101
292,467	0,05514
292,681	0,0486
292,896	0,05306
293,11	0,05103
293,324	0,06045
293,538	0,06444
293,752	0,07297
293,966	0,07598
294,18	0,07972
294,394	0,07069
294,608	0,07235
294,823	0,06335
295,037	0,06621
295,251	0,06643
295,465	0,06382
295,679	0,05438
295,893	0,06186
296,107	0,05072
296,321	0,05765
296,535	0,05231
296,749	0,06503
296,963	0,06122
297,177	0,06256
297,391	0,06261
297,604	0,05376
297,818	0,05901
298,032	0,0537
298,246	0,03711
298,46	0,04522
298,674	0,04522
298,888	0,04915
299,102	0,05089
299,315	0,05788
299,529	0,06072
299,743	0,07018
299,957	0,07854
300,171	0,07812
300,385	0,08283
300,598	0,09207
300,812	0,08804
301,026	0,07462
301,24	0,07048
301,453	0,06013
301,667	0,05867
301,881	0,06413
302,094	0,05161
302,308	0,05359
302,522	0,0586
302,735	0,06324
302,949	0,06529
303,163	0,06063
303,376	0,06929
303,59	0,07397
303,803	0,07821
304,017	0,0762
304,231	0,06728
304,444	0,07141
304,658	0,06681
304,871	0,07011
305,085	0,06474
305,298	0,06056
305,512	0,06808
305,725	0,0635
305,939	0,05862
306,152	0,05148
306,366	0,03656
306,579	0,037
306,793	0,04384
307,006	0,04502
307,22	0,03559
307,433	0,03171
307,646	0,0212
307,86	0,01997
308,073	0,0216
308,286	0,0151
308,5	0,02219
308,713	0,02907
308,926	0,03176
309,14	0,02339
309,353	0,01754
309,566	0,01659
309,78	0,01268
309,993	0,01901
310,206	0,02432
310,419	0,02478
310,633	0,03082
310,846	0,04932
311,059	0,05347
311,272	0,05186
311,486	0,04512
311,699	0,04422
311,912	0,04632
312,125	0,05477
312,338	0,05356
312,551	0,04327
312,764	0,0521
312,978	0,05737
313,191	0,04443
313,404	0,03286
313,617	0,02938
313,83	0,04302
314,043	0,05209
314,256	0,05528
314,469	0,04891
314,682	0,04929
314,895	0,06193
315,108	0,05951
315,321	0,05668
315,534	0,04901
315,747	0,05971
315,96	0,07197
316,173	0,05839
316,386	0,04996
316,599	0,05441
316,812	0,05916
317,025	0,06684
317,237	0,05429
317,45	0,04872
317,663	0,05049
317,876	0,06129
318,089	0,064
318,302	0,0444
318,515	0,04442
318,727	0,03897
318,94	0,03265
319,153	0,04023
319,366	0,03843
319,578	0,03772
319,791	0,04319
320,004	0,03731
320,217	0,03325
320,429	0,03125
320,642	0,04465
320,855	0,04469
321,067	0,04697
321,28	0,04277
321,493	0,04153
321,705	0,03602
321,918	0,0444
322,131	0,04007
322,343	0,04316
322,556	0,03912
322,768	0,03758
322,981	0,02898
323,194	0,0323
323,406	0,03372
323,619	0,03216
323,831	0,03036
324,044	0,03558
324,256	0,02935
324,469	0,01991
324,681	0,0201
324,894	0,0223
325,106	0,02583
325,319	0,02806
325,531	0,03471
325,743	0,03434
325,956	0,04219
326,168	0,04125
326,381	0,04368
326,593	0,04001
326,805	0,0497
327,018	0,04892
327,23	0,04418
327,442	0,04793
327,655	0,0425
327,867	0,04106
328,079	0,04355
328,292	0,04186
328,504	0,04443
328,716	0,03797
328,928	0,04669
329,141	0,05069
329,353	0,05004
329,565	0,05493
329,777	0,04888
329,99	0,05442
330,202	0,05715
330,414	0,05443
330,626	0,05617
330,838	0,0514
331,05	0,04979
331,263	0,04698
331,475	0,04865
331,687	0,04854
331,899	0,05067
332,111	0,05348
332,323	0,0576
332,535	0,05419
332,747	0,05571
332,959	0,0519
333,171	0,05812
333,383	0,06494
333,595	0,06452
333,807	0,06194
334,019	0,05523
334,231	0,05306
334,443	0,04864
334,655	0,04597
334,867	0,04735
335,079	0,05045
335,291	0,04179
335,503	0,04243
335,714	0,03781
335,926	0,04208
336,138	0,04351
336,35	0,05124
336,562	0,05055
336,774	0,04735
336,986	0,04938
337,197	0,05215
337,409	0,05216
337,621	0,05546
337,833	0,05347
338,044	0,05639
338,256	0,05527
338,468	0,05708
338,68	0,05433
338,891	0,05217
339,103	0,0473
339,315	0,04263
339,526	0,02624
339,738	0,02585
339,95	0,02275
340,161	0,02715
340,373	0,0171
340,585	0,0087
340,796	0,00449
341,008	0,00758
341,219	0,0155
341,431	0,02346
341,642	0,02406
341,854	0,03164
342,065	0,03772
342,277	0,0423
342,489	0,035
342,7	0,04291
342,912	0,04808
343,123	0,05133
343,334	0,05941
343,546	0,04489
343,757	0,04681
343,969	0,04838
344,18	0,04291
344,392	0,04538
344,603	0,05402
344,814	0,05968
345,026	0,06422
345,237	0,06646
345,448	0,06148
345,66	0,05275
345,871	0,06135
346,082	0,06426
346,294	0,05963
346,505	0,06913
346,716	0,06039
346,927	0,05936
347,139	0,05972
347,35	0,05729
347,561	0,06156
347,772	0,05688
347,984	0,06301
348,195	0,06463
348,406	0,05459
348,617	0,05681
348,828	0,05491
349,039	0,0551
349,251	0,05559
349,462	0,05002
349,673	0,04261
349,884	0,03635
350,095	0,04225
350,306	0,03753
350,517	0,04688
350,728	0,04895
350,939	0,05257
351,15	0,05154
351,361	0,05275
351,572	0,05724
351,783	0,05834
351,994	0,0596
352,205	0,06243
352,416	0,06371
352,627	0,06424
352,838	0,05365
353,049	0,06287
353,26	0,06121
353,471	0,05629
353,682	0,05465
353,893	0,04506
354,103	0,04491
354,314	0,04711
354,525	0,05178
354,736	0,04793
354,947	0,04585
355,157	0,04493
355,368	0,03939
355,579	0,03345
355,79	0,03762
356,001	0,03383
356,211	0,03222
356,422	0,02536
356,633	0,02795
356,843	0,0225
357,054	0,0191
357,265	0,0246
357,476	0,02967
357,686	0,02338
357,897	0,03537
358,107	0,03523
358,318	0,03737
358,529	0,0414
358,739	0,05121
358,95	0,04585
359,16	0,04806
359,371	0,05091
359,582	0,03894
359,792	0,03481
360,003	0,03551
360,213	0,02478
360,424	0,02488
360,634	0,03469
360,845	0,03252
361,055	0,02849
361,266	0,03401
361,476	0,04081
361,686	0,04647
361,897	0,05689
362,107	0,05704
362,318	0,06363
362,528	0,06387
362,738	0,06148
362,949	0,05092
363,159	0,04846
363,369	0,04934
363,58	0,04609
363,79	0,03335
364	0,02555
364,211	0,02031
364,421	0,01878
364,631	0,02116
364,842	0,02534
365,052	0,02274
365,262	0,02699
365,472	0,0345
365,682	0,0363
365,893	0,03457
366,103	0,04375
366,313	0,04536
366,523	0,05199
366,733	0,05028
366,943	0,04607
367,154	0,04587
367,364	0,05767
367,574	0,06
367,784	0,05821
367,994	0,05574
368,204	0,06023
368,414	0,05301
368,624	0,05721
368,834	0,04676
369,044	0,05138
369,254	0,05486
369,464	0,05039
369,674	0,04663
369,884	0,0399
370,094	0,03681
370,304	0,03313
370,514	0,03385
370,724	0,03208
370,934	0,03011
371,144	0,03262
371,353	0,0354
371,563	0,03709
371,773	0,04176
371,983	0,04009
372,193	0,04036
372,403	0,04355
372,612	0,04973
372,822	0,04505
373,032	0,04658
373,242	0,04829
373,452	0,04834
373,661	0,04692
373,871	0,04056
374,081	0,04247
374,29	0,03992
374,5	0,04081
374,71	0,03886
374,92	0,03622
375,129	0,03663
375,339	0,03843
375,549	0,03681
375,758	0,03955
375,968	0,03533
376,177	0,03581
376,387	0,02893
376,597	0,03029
376,806	0,03374
377,016	0,02968
377,225	0,02965
377,435	0,02491
377,644	0,02447
377,854	0,02052
378,063	0,02026
378,273	0,02358
378,482	0,02693
378,692	0,03346
378,901	0,03482
379,111	0,03296
379,32	0,0396
379,529	0,03957
379,739	0,04509
379,948	0,04109
380,158	0,04539
380,367	0,04576
380,576	0,04458
380,786	0,0411
380,995	0,04118
381,204	0,04119
381,414	0,04028
381,623	0,03517
381,832	0,03308
382,041	0,03155
382,251	0,03736
382,46	0,03515
382,669	0,03261
382,878	0,03205
383,088	0,03528
383,297	0,03392
383,506	0,03314
383,715	0,03146
383,924	0,03069
384,133	0,03297
384,342	0,03724
384,552	0,03412
384,761	0,03717
384,97	0,03825
385,179	0,04294
385,388	0,0438
385,597	0,04259
385,806	0,0426
386,015	0,04441
386,224	0,0484
386,433	0,04476
386,642	0,03726
386,851	0,03927
387,06	0,03854
387,269	0,03618
387,478	0,0329
387,687	0,02852
387,896	0,03063
388,105	0,02982
388,314	0,02453
388,523	0,02167
388,731	0,02269
388,94	0,02568
389,149	0,02359
389,358	0,02212
389,567	0,02616
389,776	0,02609
389,984	0,02525
390,193	0,02637
390,402	0,02263
390,611	0,02689
390,819	0,02594
391,028	0,03094
391,237	0,03255
391,446	0,02912
391,654	0,03349
391,863	0,02908
392,072	0,02694
392,28	0,03117
392,489	0,02811
392,698	0,03208
392,906	0,03173
393,115	0,03272
393,324	0,03005
393,532	0,02957
393,741	0,03175
393,949	0,02662
394,158	0,02587
394,366	0,025
394,575	0,02071
394,783	0,02129
394,992	0,01954
395,2	0,01688
395,409	0,01883
395,617	0,01479
395,826	0,0135
396,034	0,01195
396,243	0,01251
396,451	0,01448
396,66	0,01671
396,868	0,01741
397,076	0,01381
397,285	0,0118
397,493	0,01538
397,701	0,01239
397,91	0,01244
398,118	0,01449
398,326	0,01766
398,535	0,01429
398,743	0,01469
398,951	0,01406
399,159	0,01648
399,368	0,02068
399,576	0,02116
399,784	0,01982
399,992	0,02007
400,201	0,02051
400,409	0,01818
400,617	0,02063
400,825	0,02422
401,033	0,02515
401,241	0,02642
401,45	0,02684
401,658	0,02748
401,866	0,03263
402,074	0,03274
402,282	0,03245
402,49	0,0335
402,698	0,03395
402,906	0,03119
403,114	0,03029
403,322	0,03018
403,53	0,02861
403,738	0,02608
403,946	0,02362
404,154	0,01871
404,362	0,01974
404,57	0,02091
404,778	0,01977
404,986	0,0206
405,194	0,02002
405,402	0,0208
405,609	0,019
405,817	0,01674
406,025	0,01814
406,233	0,01963
406,441	0,02126
406,649	0,01907
406,856	0,01833
407,064	0,01868
407,272	0,01841
407,48	0,01797
407,687	0,01653
407,895	0,01911
408,103	0,01923
408,311	0,01741
408,518	0,01698
408,726	0,01834
408,934	0,02067
409,141	0,02066
409,349	0,02008
409,557	0,02056
409,764	0,0209
409,972	0,02154
410,18	0,01773
410,387	0,01913
410,595	0,01978
410,802	0,0178
411,01	0,01525
411,217	0,01391
411,425	0,01486
411,632	0,01598
411,84	0,01501
412,047	0,01247
412,255	0,01217
412,462	0,01359
412,67	0,01388
412,877	0,01525
413,085	0,0156
413,292	0,01701
413,499	0,01722
413,707	0,01615
413,914	0,01535
414,122	0,01499
414,329	0,01794
414,536	0,01713
414,744	0,01786
414,951	0,01819
415,158	0,01623
415,366	0,01595
415,573	0,01592
415,78	0,0153
415,987	0,01575
416,195	0,0167
416,402	0,01557
416,609	0,01581
416,816	0,01721
417,023	0,01779
417,231	0,0165
417,438	0,01804
417,645	0,01834
417,852	0,01745
418,059	0,01858
418,266	0,01692
418,473	0,01557
418,68	0,01784
418,888	0,01597
419,095	0,01559
419,302	0,01497
419,509	0,0152
419,716	0,01401
419,923	0,0152
420,13	0,01398
420,337	0,01546
420,544	0,01748
420,751	0,01857
420,958	0,01776
421,165	0,0191
421,371	0,018
421,578	0,01717
421,785	0,0172
421,992	0,01758
422,199	0,01762
422,406	0,01931
422,613	0,01807
422,82	0,01748
423,026	0,01711
423,233	0,01774
423,44	0,01601
423,647	0,01728
423,854	0,01773
424,06	0,01777
424,267	0,01641
424,474	0,01511
424,681	0,01499
424,887	0,01466
425,094	0,01403
425,301	0,01572
425,507	0,01471
425,714	0,01558
425,921	0,01517
426,127	0,01429
426,334	0,01379
426,54	0,01445
426,747	0,01513
426,954	0,01417
427,16	0,01322
427,367	0,01295
427,573	0,01141
427,78	0,01139
427,986	0,01213
428,193	0,01164
428,399	0,01419
428,606	0,01525
428,812	0,0172
429,019	0,01666
429,225	0,01842
429,432	0,01932
429,638	0,0197
429,845	0,01815
430,051	0,01922
430,257	0,01863
430,464	0,01876
430,67	0,01772
430,876	0,01714
431,083	0,0174
431,289	0,01785
431,495	0,01796
431,702	0,01833
431,908	0,01744
432,114	0,01801
432,32	0,01667
432,527	0,01597
432,733	0,01595
432,939	0,0157
433,145	0,01655
433,351	0,01587
433,558	0,01634
433,764	0,01646
433,97	0,01442
434,176	0,01577
434,382	0,0175
434,588	0,01776
434,794	0,01788
435,001	0,01842
435,207	0,01807
435,413	0,01761
435,619	0,01708
435,825	0,01637
436,031	0,01535
436,237	0,0169
436,443	0,01723
436,649	0,01666
436,855	0,0171
437,061	0,01867
437,267	0,01852
437,473	0,01859
437,679	0,01834
437,884	0,01811
438,09	0,01823
438,296	0,01736
438,502	0,01723
438,708	0,01678
438,914	0,0162
439,12	0,01581
439,325	0,01525
439,531	0,01532
439,737	0,01553
439,943	0,0162
440,149	0,01596
440,354	0,01643
440,56	0,01747
440,766	0,01683
440,972	0,01712
441,177	0,01747
441,383	0,01812
441,589	0,01753
441,794	0,01787
442	0,01805
442,206	0,01811
442,411	0,01813
442,617	0,01809
442,822	0,01883
443,028	0,01849
443,234	0,01931
443,439	0,01956
443,645	0,02007
443,85	0,0208
444,056	0,02035
444,261	0,02046
444,467	0,02096
444,672	0,02135
444,878	0,02167
445,083	0,02177
445,289	0,0225
445,494	0,0218
445,699	0,02216
445,905	0,02204
446,11	0,02175
446,316	0,02239
446,521	0,0219
446,726	0,02145
446,932	0,02165
447,137	0,02141
447,342	0,0209
447,548	0,0203
447,753	0,02073
447,958	0,02116
448,164	0,02075
448,369	0,02088
448,574	0,02011
448,779	0,02076
448,984	0,02063
449,19	0,02136
449,395	0,02168
449,6	0,02246
449,805	0,02409
450,01	0,02385
450,215	0,02346
450,421	0,02483
450,626	0,0256
450,831	0,0258
451,036	0,0253
451,241	0,026
451,446	0,0253
451,651	0,025
451,856	0,02503
452,061	0,02493
452,266	0,02527
452,471	0,02571
452,676	0,02501
452,881	0,02476
453,086	0,02584
453,291	0,02641
453,496	0,0266
453,701	0,02799
453,906	0,02913
454,111	0,02851
454,316	0,02862
454,52	0,02894
454,725	0,02822
454,93	0,02898
455,135	0,02889
455,34	0,02928
455,545	0,03042
455,749	0,03047
455,954	0,02969
456,159	0,02965
456,364	0,03142
456,568	0,03129
456,773	0,03154
456,978	0,03322
457,182	0,03372
457,387	0,03459
457,592	0,0341
457,796	0,03323
458,001	0,03379
458,206	0,03422
458,41	0,03428
458,615	0,03336
458,82	0,03379
459,024	0,0344
459,229	0,03381
459,433	0,03302
459,638	0,03325
459,842	0,03423
460,047	0,03506
460,251	0,03523
460,456	0,03487
460,66	0,03544
460,865	0,03587
461,069	0,03625
461,274	0,03673
461,478	0,03745
461,682	0,03804
461,887	0,03847
462,091	0,03774
462,296	0,03766
462,5	0,03794
462,704	0,03915
462,909	0,03862
463,113	0,038
463,317	0,03827
463,522	0,03805
463,726	0,03815
463,93	0,03792
464,134	0,03811
464,339	0,0392
464,543	0,03944
464,747	0,03952
464,951	0,03987
465,155	0,04094
465,36	0,04252
465,564	0,04216
465,768	0,04186
465,972	0,04281
466,176	0,04325
466,38	0,04361
466,584	0,0439
466,788	0,04429
466,993	0,04475
467,197	0,04407
467,401	0,04437
467,605	0,04404
467,809	0,04523
468,013	0,04655
468,217	0,04619
468,421	0,04672
468,625	0,04652
468,829	0,04676
469,033	0,0469
469,236	0,04756
469,44	0,04798
469,644	0,04751
469,848	0,04778
470,052	0,04871
470,256	0,04778
470,46	0,0484
470,664	0,04916
470,867	0,04978
471,071	0,04995
471,275	0,05068
471,479	0,05046
471,683	0,05142
471,886	0,0522
472,09	0,05267
472,294	0,05182
472,497	0,05276
472,701	0,05262
472,905	0,05292
473,109	0,05384
473,312	0,05404
473,516	0,05447
473,719	0,05477
473,923	0,05515
474,127	0,05546
474,33	0,05566
474,534	0,05661
474,737	0,05724
474,941	0,05772
475,145	0,05743
475,348	0,05701
475,552	0,05767
475,755	0,05799
475,959	0,05877
476,162	0,05931
476,366	0,05964
476,569	0,0597
476,772	0,05993
476,976	0,06052
477,179	0,06124
477,383	0,06202
477,586	0,06253
477,789	0,06303
477,993	0,06327
478,196	0,06357
478,399	0,06385
478,603	0,06451
478,806	0,06567
479,009	0,06594
479,213	0,06594
479,416	0,06624
479,619	0,06725
479,822	0,06832
480,026	0,06883
480,229	0,06944
480,432	0,07004
480,635	0,07049
480,838	0,07103
481,041	0,07107
481,245	0,07176
481,448	0,07223
481,651	0,0729
481,854	0,07289
482,057	0,07309
482,26	0,07361
482,463	0,07421
482,666	0,07517
482,869	0,07562
483,072	0,07614
483,275	0,07691
483,478	0,07725
483,681	0,07821
483,884	0,07851
484,087	0,07927
484,29	0,07984
484,493	0,08033
484,696	0,08086
484,899	0,08095
485,102	0,0817
485,305	0,08197
485,508	0,08259
485,71	0,08347
485,913	0,08418
486,116	0,08488
486,319	0,08562
486,522	0,08643
486,725	0,08695
486,927	0,08804
487,13	0,08869
487,333	0,08943
487,536	0,09038
487,738	0,09131
487,941	0,092
488,144	0,09261
488,346	0,09328
488,549	0,09366
488,752	0,09404
488,954	0,09503
489,157	0,09507
489,359	0,0956
489,562	0,09605
489,765	0,09655
489,967	0,0968
490,17	0,09752
490,372	0,09819
490,575	0,09879
490,777	0,09965
490,98	0,10027
491,182	0,10062
491,385	0,10129
491,587	0,10206
491,79	0,10298
491,992	0,10357
492,195	0,10426
492,397	0,10451
492,599	0,10505
492,802	0,10566
493,004	0,10657
493,207	0,10747
493,409	0,10845
493,611	0,10933
493,814	0,11021
494,016	0,11047
494,218	0,11112
494,42	0,11214
494,623	0,11305
494,825	0,11382
495,027	0,11456
495,229	0,11514
495,432	0,11577
495,634	0,11652
495,836	0,1173
496,038	0,11776
496,24	0,11876
496,442	0,11962
496,645	0,12013
496,847	0,12091
497,049	0,12149
497,251	0,12235
497,453	0,12315
497,655	0,12376
497,857	0,12455
498,059	0,12561
498,261	0,1264
498,463	0,12738
498,665	0,12835
498,867	0,12928
499,069	0,13014
499,271	0,13103
499,473	0,13196
499,675	0,13274
499,877	0,13401
500,079	0,13484
500,281	0,13538
500,482	0,13638
500,684	0,13735
500,886	0,13827
501,088	0,13896
501,29	0,13987
501,492	0,1407
501,693	0,14185
501,895	0,14279
502,097	0,14358
502,299	0,14445
502,5	0,14542
502,702	0,14647
502,904	0,14735
503,106	0,14835
503,307	0,14972
503,509	0,1508
503,711	0,15211
503,912	0,15283
504,114	0,15357
504,315	0,15445
504,517	0,15571
504,719	0,15696
504,92	0,15781
505,122	0,15859
505,323	0,15927
505,525	0,16026
505,726	0,16127
505,928	0,16219
506,129	0,16318
506,331	0,16441
506,532	0,16556
506,734	0,16625
506,935	0,16705
507,137	0,16804
507,338	0,16891
507,539	0,16995
507,741	0,17096
507,942	0,17166
508,143	0,17256
508,345	0,17366
508,546	0,17478
508,747	0,17589
508,949	0,17716
509,15	0,17805
509,351	0,17919
509,553	0,18039
509,754	0,18174
509,955	0,18255
510,156	0,18409
510,357	0,18524
510,559	0,1866
510,76	0,18741
510,961	0,18872
511,162	0,18971
511,363	0,19098
511,564	0,19224
511,766	0,19345
511,967	0,19456
512,168	0,19596
512,369	0,19712
512,57	0,19833
512,771	0,19966
512,972	0,20099
513,173	0,20206
513,374	0,20334
513,575	0,20467
513,776	0,20571
513,977	0,20678
514,178	0,20788
514,379	0,20912
514,58	0,21029
514,781	0,21161
514,981	0,21273
515,182	0,21393
515,383	0,21513
515,584	0,21632
515,785	0,21764
515,986	0,21874
516,187	0,22011
516,387	0,22149
516,588	0,22268
516,789	0,22405
516,99	0,22515
517,19	0,22629
517,391	0,22781
517,592	0,22896
517,793	0,23014
517,993	0,23141
518,194	0,23309
518,395	0,23437
518,595	0,23569
518,796	0,23689
518,996	0,23804
519,197	0,2394
519,398	0,24049
519,598	0,24173
519,799	0,24301
519,999	0,2444
520,2	0,24569
520,4	0,24685
520,601	0,24837
520,801	0,24957
521,002	0,25087
521,202	0,25215
521,403	0,2534
521,603	0,25474
521,804	0,25581
522,004	0,25728
522,204	0,25845
522,405	0,25961
522,605	0,26075
522,806	0,26189
523,006	0,26309
523,206	0,26445
523,407	0,26585
523,607	0,26707
523,807	0,26847
524,007	0,2696
524,208	0,27062
524,408	0,27189
524,608	0,27328
524,808	0,27468
525,009	0,27596
525,209	0,27723
525,409	0,27877
525,609	0,27966
525,809	0,2812
526,009	0,28211
526,209	0,28361
526,41	0,28487
526,61	0,28619
526,81	0,28727
527,01	0,28839
527,21	0,28969
527,41	0,29094
527,61	0,29166
527,81	0,29304
528,01	0,29394
528,21	0,29541
528,41	0,29651
528,61	0,29786
528,81	0,29902
529,01	0,30029
529,21	0,30162
529,41	0,30258
529,609	0,30369
529,809	0,30485
530,009	0,30587
530,209	0,30728
530,409	0,30829
530,609	0,30958
530,808	0,31052
531,008	0,3115
531,208	0,31255
531,408	0,31354
531,608	0,31476
531,807	0,31581
532,007	0,31713
532,207	0,31825
532,406	0,3191
532,606	0,3204
532,806	0,32146
533,005	0,32257
533,205	0,32355
533,405	0,32453
533,604	0,32561
533,804	0,32655
534,003	0,32786
534,203	0,32865
534,403	0,32968
534,602	0,33064
534,802	0,33145
535,001	0,33238
535,201	0,33331
535,4	0,33436
535,6	0,33536
535,799	0,33629
535,998	0,33722
536,198	0,33802
536,397	0,3391
536,597	0,34012
536,796	0,34126
536,995	0,34235
537,195	0,34317
537,394	0,34427
537,594	0,34545
537,793	0,34619
537,992	0,34742
538,191	0,34847
538,391	0,34948
538,59	0,35025
538,789	0,35115
538,988	0,35167
539,188	0,35224
539,387	0,35336
539,586	0,3543
539,785	0,35497
539,984	0,35613
540,184	0,35656
540,383	0,35733
540,582	0,35795
540,781	0,35892
540,98	0,35992
541,179	0,36098
541,378	0,362
541,577	0,36261
541,776	0,36321
541,975	0,36392
542,174	0,36437
542,373	0,36527
542,572	0,36598
542,771	0,36666
542,97	0,36727
543,169	0,36764
543,368	0,36804
543,567	0,36855
543,766	0,36922
543,965	0,36963
544,164	0,37008
544,362	0,37097
544,561	0,37164
544,76	0,3721
544,959	0,37299
545,158	0,37369
545,356	0,37443
545,555	0,37522
545,754	0,37576
545,953	0,37612
546,151	0,37662
546,35	0,37751
546,549	0,37771
546,748	0,3782
546,946	0,37873
547,145	0,37906
547,344	0,3795
547,542	0,37978
547,741	0,38016
547,939	0,38041
548,138	0,38076
548,337	0,38133
548,535	0,38149
548,734	0,38189
548,932	0,3818
549,131	0,38203
549,329	0,38212
549,528	0,38247
549,726	0,38282
549,925	0,38324
550,123	0,3839
550,322	0,38452
550,52	0,38499
550,718	0,38543
550,917	0,38578
551,115	0,38632
551,313	0,38694
551,512	0,38769
551,71	0,38811
551,908	0,38857
552,107	0,38899
552,305	0,38939
552,503	0,38971
552,702	0,38997
552,9	0,39032
553,098	0,39092
553,296	0,39154
553,495	0,39205
553,693	0,39246
553,891	0,39285
554,089	0,39346
554,287	0,3939
554,485	0,39423
554,683	0,39452
554,882	0,39508
555,08	0,39563
555,278	0,3961
555,476	0,39651
555,674	0,39676
555,872	0,397
556,07	0,39742
556,268	0,39751
556,466	0,39773
556,664	0,39827
556,862	0,39891
557,06	0,39934
557,258	0,39962
557,456	0,40011
557,654	0,40061
557,851	0,40118
558,049	0,40171
558,247	0,4022
558,445	0,40293
558,643	0,40364
558,841	0,404
559,039	0,40458
559,236	0,40516
559,434	0,40596
559,632	0,40631
559,83	0,40682
560,027	0,40726
560,225	0,40797
560,423	0,40849
560,62	0,40908
560,818	0,40959
561,016	0,4103
561,213	0,41097
561,411	0,41143
561,609	0,41187
561,806	0,41247
562,004	0,41295
562,202	0,41362
562,399	0,41431
562,597	0,41493
562,794	0,4156
562,992	0,41617
563,189	0,4169
563,387	0,41749
563,584	0,41841
563,782	0,41916
563,979	0,41993
564,177	0,42092
564,374	0,42177
564,571	0,42249
564,769	0,42331
564,966	0,42378
565,164	0,42473
565,361	0,42532
565,558	0,42609
565,756	0,42678
565,953	0,42768
566,15	0,42836
566,347	0,4292
566,545	0,42999
566,742	0,43095
566,939	0,43189
567,136	0,43303
567,334	0,43392
567,531	0,43511
567,728	0,43616
567,925	0,43714
568,122	0,43818
568,319	0,43945
568,517	0,44057
568,714	0,44156
568,911	0,44238
569,108	0,4435
569,305	0,44456
569,502	0,44559
569,699	0,44671
569,896	0,44762
570,093	0,44869
570,29	0,44977
570,487	0,45071
570,684	0,4518
570,881	0,45311
571,078	0,45419
571,275	0,45547
571,472	0,45655
571,669	0,45762
571,866	0,4587
572,062	0,45976
572,259	0,46084
572,456	0,46184
572,653	0,46318
572,85	0,4642
573,047	0,46525
573,243	0,46658
573,44	0,46739
573,637	0,46861
573,834	0,46999
574,03	0,47123
574,227	0,4725
574,424	0,47388
574,62	0,47506
574,817	0,47637
575,014	0,47738
575,21	0,47882
575,407	0,47998
575,604	0,48147
575,8	0,48287
575,997	0,48424
576,193	0,48536
576,39	0,48674
576,586	0,48781
576,783	0,48928
576,979	0,49026
577,176	0,49158
577,372	0,49277
577,569	0,49387
577,765	0,49493
577,962	0,49632
578,158	0,49746
578,355	0,49878
578,551	0,49986
578,747	0,50115
578,944	0,50232
579,14	0,50377
579,336	0,50536
579,533	0,50637
579,729	0,50788
579,925	0,50921
580,122	0,5101
580,318	0,51124
580,514	0,51246
580,71	0,51382
580,906	0,51529
581,103	0,51659
581,299	0,51783
581,495	0,51871
581,691	0,5201
581,887	0,52114
582,084	0,52231
582,28	0,52341
582,476	0,52445
582,672	0,52557
582,868	0,52663
583,064	0,52744
583,26	0,5283
583,456	0,52923
583,652	0,53028
583,848	0,53119
584,044	0,53211
584,24	0,5328
584,436	0,53383
584,632	0,53471
584,828	0,53535
585,024	0,53582
585,22	0,53666
585,416	0,53729
585,611	0,53801
585,807	0,53861
586,003	0,53927
586,199	0,53994
586,395	0,54057
586,591	0,54088
586,786	0,54139
586,982	0,54202
587,178	0,54261
587,374	0,54286
587,569	0,54312
587,765	0,54319
587,961	0,54343
588,156	0,54335
588,352	0,54335
588,548	0,54332
588,743	0,5437
588,939	0,54352
589,135	0,5434
589,33	0,54342
589,526	0,54345
589,721	0,54338
589,917	0,54346
590,112	0,54337
590,308	0,54312
590,503	0,54325
590,699	0,54319
590,894	0,54286
591,09	0,5427
591,285	0,54242
591,481	0,54186
591,676	0,54118
591,872	0,54062
592,067	0,54006
592,262	0,53938
592,458	0,53898
592,653	0,53796
592,848	0,53737
593,044	0,5365
593,239	0,53558
593,434	0,53464
593,629	0,53373
593,825	0,53286
594,02	0,53201
594,215	0,53088
594,41	0,52985
594,606	0,5286
594,801	0,52747
594,996	0,52625
595,191	0,52498
595,386	0,52382
595,581	0,52258
595,777	0,52135
595,972	0,51999
596,167	0,51851
596,362	0,5171
596,557	0,51555
596,752	0,51418
596,947	0,51256
597,142	0,5108
597,337	0,50914
597,532	0,50757
597,727	0,50556
597,922	0,50368
598,117	0,50177
598,312	0,49999
598,507	0,49787
598,701	0,49578
598,896	0,49358
599,091	0,49166
599,286	0,48967
599,481	0,48737
599,676	0,48496
599,87	0,48283
600,065	0,48043
600,26	0,47824
600,455	0,47574
600,65	0,47338
600,844	0,47089
601,039	0,4684
601,234	0,4659
601,428	0,46322
601,623	0,46074
601,818	0,45845
602,012	0,45597
602,207	0,45355
602,402	0,45095
602,596	0,44832
602,791	0,44572
602,985	0,44334
603,18	0,4407
603,374	0,43793
603,569	0,43526
603,763	0,43264
603,958	0,42971
604,152	0,42686
604,347	0,42394
604,541	0,42109
604,736	0,41829
604,93	0,41545
605,125	0,41245
605,319	0,40968
605,513	0,40667
605,708	0,40371
605,902	0,40079
606,096	0,39771
606,291	0,39491
606,485	0,39192
606,679	0,38899
606,874	0,38599
607,068	0,38307
607,262	0,38015
607,456	0,37705
607,65	0,37403
607,845	0,37107
608,039	0,36799
608,233	0,36496
608,427	0,36176
608,621	0,35879
608,815	0,35571
609,01	0,35271
609,204	0,34956
609,398	0,34667
609,592	0,34369
609,786	0,34077
609,98	0,33802
610,174	0,33495
610,368	0,33221
610,562	0,32924
610,756	0,32629
610,95	0,3234
611,144	0,32046
611,338	0,31758
611,532	0,3145
611,726	0,31142
611,919	0,30854
612,113	0,30552
612,307	0,3025
612,501	0,29946
612,695	0,29664
612,889	0,29359
613,082	0,29062
613,276	0,28761
613,47	0,28483
613,664	0,28178
613,857	0,2788
614,051	0,27585
614,245	0,27288
614,439	0,27011
614,632	0,26734
614,826	0,26426
615,02	0,2614
615,213	0,25868
615,407	0,25591
615,6	0,25297
615,794	0,25028
615,988	0,2476
616,181	0,24471
616,375	0,24206
616,568	0,23936
616,762	0,23658
616,955	0,23409
617,149	0,23144
617,342	0,22862
617,536	0,22611
617,729	0,22357
617,923	0,22104
618,116	0,21852
618,309	0,216
618,503	0,21341
618,696	0,21089
618,889	0,20852
619,083	0,20595
619,276	0,20353
619,469	0,20112
619,663	0,19872
619,856	0,19626
620,049	0,19391
620,242	0,19172
620,436	0,18948
620,629	0,1873
620,822	0,18504
621,015	0,18265
621,209	0,18055
621,402	0,17845
621,595	0,17635
621,788	0,17418
621,981	0,17206
622,174	0,16976
622,367	0,16756
622,56	0,16534
622,753	0,16317
622,946	0,16111
623,139	0,15906
623,332	0,15702
623,525	0,15491
623,718	0,15292
623,911	0,15095
624,104	0,14909
624,297	0,1472
624,49	0,14536
624,683	0,14355
624,876	0,14167
625,069	0,13971
625,262	0,138
625,454	0,13622
625,647	0,13449
625,84	0,13263
626,033	0,13088
626,226	0,12914
626,418	0,12738
626,611	0,12563
626,804	0,12389
626,997	0,12216
627,189	0,12057
627,382	0,11891
627,575	0,11723
627,767	0,11568
627,96	0,11408
628,153	0,11245
628,345	0,11086
628,538	0,1094
628,731	0,10788
628,923	0,10654
629,116	0,10527
629,308	0,10381
629,501	0,10235
629,693	0,10107
629,886	0,09967
630,078	0,09827
630,271	0,097
630,463	0,09563
630,656	0,09434
630,848	0,093
631,04	0,09167
631,233	0,09032
631,425	0,08909
631,617	0,08776
631,81	0,08645
632,002	0,08519
632,194	0,08412
632,387	0,08302
632,579	0,08181
632,771	0,08059
632,964	0,07943
633,156	0,07822
633,348	0,07701
633,54	0,07595
633,732	0,07491
633,925	0,07381
634,117	0,07303
634,309	0,07183
634,501	0,07066
634,693	0,06968
634,885	0,06874
635,077	0,06779
635,269	0,06685
635,462	0,06589
635,654	0,06494
635,846	0,06404
636,038	0,06308
636,23	0,062
636,422	0,06125
636,614	0,06026
636,806	0,05945
636,997	0,05866
637,189	0,05785
637,381	0,057
637,573	0,05623
637,765	0,0555
637,957	0,05466
638,149	0,05397
638,341	0,05322
638,532	0,0524
638,724	0,05177
638,916	0,05103
639,108	0,05022
639,299	0,0496
639,491	0,04889
639,683	0,0483
639,875	0,04755
640,066	0,04693
640,258	0,04607
640,45	0,04532
640,641	0,04477
640,833	0,04412
641,025	0,04353
641,216	0,04287
641,408	0,04209
641,599	0,04144
641,791	0,04078
641,982	0,04012
642,174	0,03948
642,366	0,03904
642,557	0,0385
642,748	0,03774
642,94	0,03721
643,131	0,03658
643,323	0,03606
643,514	0,03556
643,706	0,03516
643,897	0,03467
644,088	0,03427
644,28	0,03387
644,471	0,03335
644,662	0,03284
644,854	0,03256
645,045	0,03213
645,236	0,03169
645,428	0,03125
645,619	0,03085
645,81	0,03043
646,001	0,0299
646,193	0,0294
646,384	0,02893
646,575	0,02853
646,766	0,02811
646,957	0,02762
647,148	0,02712
647,339	0,02678
647,531	0,02646
647,722	0,02604
647,913	0,02552
648,104	0,02521
648,295	0,02482
648,486	0,02437
648,677	0,02398
648,868	0,02365
649,059	0,02327
649,25	0,02296
649,441	0,02264
649,632	0,02215
649,823	0,0219
650,013	0,02163
650,204	0,02121
650,395	0,02094
650,586	0,02074
650,777	0,02048
650,968	0,02011
651,159	0,01988
651,349	0,01959
651,54	0,0192
651,731	0,01903
651,922	0,01878
652,112	0,01843
652,303	0,01824
652,494	0,01802
652,684	0,01777
652,875	0,01751
653,066	0,01739
653,256	0,01711
653,447	0,01688
653,638	0,01669
653,828	0,0164
654,019	0,01612
654,209	0,01599
654,4	0,01575
654,59	0,01557
654,781	0,01536
654,972	0,01506
655,162	0,01489
655,352	0,01465
655,543	0,0144
655,733	0,01423
655,924	0,01422
656,114	0,01389
656,305	0,01367
656,495	0,01354
656,685	0,0132
656,876	0,01303
657,066	0,01286
657,256	0,01261
657,447	0,01257
657,637	0,01251
657,827	0,01231
658,017	0,01208
658,208	0,012
658,398	0,01176
658,588	0,01157
658,778	0,01153
658,968	0,01127
659,159	0,01117
659,349	0,0109
659,539	0,01062
659,729	0,01047
659,919	0,01032
660,109	0,01012
660,299	0,0101
660,489	0,01008
660,679	0,00987
660,869	0,00967
661,059	0,00956
661,249	0,00937
661,439	0,00937
661,629	0,00922
661,819	0,00907
662,009	0,00896
662,199	0,00885
662,389	0,00861
662,579	0,00844
662,769	0,0083
662,959	0,00815
663,149	0,00807
663,338	0,00804
663,528	0,00796
663,718	0,00794
663,908	0,00772
664,097	0,00746
664,287	0,00729
664,477	0,00713
664,667	0,00703
664,856	0,00699
665,046	0,00689
665,236	0,0068
665,425	0,00675
665,615	0,00668
665,805	0,00658
665,994	0,00663
666,184	0,00673
666,373	0,00663
666,563	0,00664
666,753	0,00659
666,942	0,00647
667,132	0,00636
667,321	0,00619
667,511	0,00609
667,7	0,00591
667,889	0,00568
668,079	0,00549
668,268	0,00538
668,458	0,00531
668,647	0,00524
668,836	0,00513
669,026	0,0051
669,215	0,005
669,404	0,00509
669,594	0,00496
669,783	0,00493
669,972	0,00497
670,162	0,005
670,351	0,00489
670,54	0,00472
670,729	0,00459
670,919	0,00458
671,108	0,00441
671,297	0,00448
671,486	0,00431
671,675	0,00429
671,864	0,00422
672,053	0,00419
672,243	0,00411
672,432	0,00407
672,621	0,0042
672,81	0,00419
672,999	0,00403
673,188	0,00414
673,377	0,00401
673,566	0,00399
673,755	0,00395
673,944	0,00387
674,133	0,00375
674,322	0,0037
674,51	0,00366
674,699	0,00347
674,888	0,00339
675,077	0,00342
675,266	0,00328
675,455	0,00328
675,644	0,00323
675,832	0,00311
676,021	0,00311
676,21	0,00312
676,399	0,00304
676,587	0,00301
676,776	0,00298
676,965	0,00296
677,153	0,00292
677,342	0,00291
677,531	0,0028
677,719	0,00269
677,908	0,00273
678,097	0,00275
678,285	0,00272
678,474	0,00273
678,662	0,00273
678,851	0,0027
679,039	0,00271
679,228	0,00259
679,416	0,00259
679,605	0,00263
679,793	0,00268
679,982	0,00259
680,17	0,00251
680,359	0,00251
680,547	0,00248
680,736	0,00243
680,924	0,00246
681,112	0,00242
681,301	0,00246
681,489	0,00246
681,677	0,00243
681,866	0,00235
682,054	0,00234
682,242	0,00225
682,43	0,00231
682,619	0,00222
682,807	0,00215
682,995	0,00204
683,183	0,00191
683,371	0,00191
683,559	0,00184
683,748	0,00178
683,936	0,00173
684,124	0,00168
684,312	0,00169
684,5	0,00138
684,688	0,00149
684,876	0,0014
685,064	0,00141
685,252	0,00145
685,44	0,00137
685,628	0,00132
685,816	0,00138
686,004	0,00135
686,192	0,00132
686,38	0,0013
686,568	0,00137
686,756	0,00112
686,944	0,00122
687,131	0,0012
687,319	0,00125
687,507	0,0012
687,695	0,00114
687,883	0,00105
688,07	0,00104
688,258	0,00114
688,446	0,00109
688,634	0,00119
688,821	0,00125
689,009	0,00117
689,197	0,00124
689,384	0,0012
689,572	0,00117
689,76	0,00127
689,947	0,00125
690,135	0,00125
690,323	0,00119
690,51	0,0012
690,698	0,00113
690,885	0,00125
691,073	0,00127
691,26	0,00117
691,448	0,00121
691,635	0,00127
691,823	0,0012
692,01	0,00117
692,197	0,0011
692,385	0,00113
692,572	0,00116
692,76	0,00112
692,947	0,00107
693,134	0,00114
693,322	0,00101
693,509	0,00087
693,696	0,0008
693,884	0,00081
694,071	0,00082
694,258	0,00085
694,445	0,00082
694,633	0,00067
694,82	0,0006
695,007	0,00052
695,194	0,00041
695,381	0,00048
695,568	0,00038
695,756	0,00036
695,943	0,00039
696,13	0,00036
696,317	0,00038
696,504	0,00037
696,691	0,00045
696,878	0,00049
697,065	0,00046
697,252	0,00047
697,439	0,0005
697,626	0,00065
697,813	0,0007
698	0,00054
698,187	0,0005
698,374	0,00045
698,561	0,00039
698,747	0,00038
698,934	0,00034
699,121	0,00038
699,308	0,00026
699,495	0,00021
699,682	0,00014
699,868	0,00002
700,055	0,00001
700,242	-0,00005
700,429	-0,00013
700,615	-0,00015
700,802	-0,00019
700,989	-0,00018
701,175	-0,00027
701,362	-0,00016
701,549	-0,00009
701,735	-0,0001
701,922	-0,00007
702,108	-0,00003
702,295	-0,00005
702,482	-0,00001
702,668	0,00001
702,855	0,00007
703,041	0,0001
703,228	0,00017
703,414	0,00013
703,601	0,00006
703,787	0,00014
703,973	0,00014
704,16	0,00001
704,346	0,00012
704,533	0,00003
704,719	-0,00011
704,905	-0,00027
705,092	-0,0003
705,278	-0,00027
705,464	-0,0003
705,65	-0,00027
705,837	-0,00042
706,023	-0,00041
706,209	-0,00029
706,395	-0,00026
706,582	-0,00028
706,768	-0,0002
706,954	-0,00003
707,14	-0,00001
707,326	-0,00004
707,512	-0,00003
707,698	-0,00007
707,885	-0,00005
708,071	-0,0001
708,257	-0,00016
708,443	-0,00023
708,629	-0,00011
708,815	-0,00011
709,001	-0,0002
709,187	-0,00031
709,373	-0,00039
709,559	-0,00048
709,745	-0,00049
709,93	-0,00058
710,116	-0,00047
710,302	-0,00043
710,488	-0,0004
710,674	-0,00045
710,86	-0,00047
711,046	-0,00044
711,231	-0,00032
711,417	-0,00024
711,603	-0,0002
711,789	-0,00029
711,974	-0,00017
712,16	-0,00034
712,346	-0,0004
712,532	-0,00039
712,717	-0,00045
712,903	-0,0005
713,089	-0,00053
713,274	-0,00061
713,46	-0,00067
713,645	-0,00064
713,831	-0,00061
714,016	-0,00065
714,202	-0,00053
714,388	-0,00041
714,573	-0,00044
714,759	-0,00042
714,944	-0,0004
715,129	-0,00048
715,315	-0,00053
715,5	-0,00061
715,686	-0,00065
715,871	-0,00061
716,057	-0,00064
716,242	-0,00063
716,427	-0,00072
716,613	-0,00083
716,798	-0,00084
716,983	-0,0008
717,168	-0,00069
717,354	-0,00059
717,539	-0,00055
717,724	-0,00057
717,909	-0,00057
718,095	-0,00052
718,28	-0,00067
718,465	-0,00065
718,65	-0,00064
718,835	-0,0007
719,02	-0,00076
719,206	-0,00082
719,391	-0,00084
719,576	-0,00089
719,761	-0,0008
719,946	-0,00081
720,131	-0,00084
720,316	-0,00077
720,501	-0,00085
720,686	-0,0007
720,871	-0,00052
721,056	-0,00047
721,241	-0,00053
721,426	-0,00054
721,61	-0,00054
721,795	-0,0006
721,98	-0,00071
722,165	-0,00069
722,35	-0,00062
722,535	-0,0006
722,719	-0,00076
722,904	-0,00079
723,089	-0,00087
723,274	-0,00078
723,458	-0,00088
723,643	-0,00081
723,828	-0,00093
724,013	-0,00092
724,197	-0,00101
724,382	-0,00111
724,567	-0,00111
724,751	-0,00103
724,936	-0,00111
725,12	-0,00111
725,305	-0,00113
725,489	-0,00102
725,674	-0,00108
725,859	-0,00094
726,043	-0,00091
726,228	-0,00073
726,412	-0,0007
726,596	-0,00075
726,781	-0,00069
726,965	-0,00067
727,15	-0,00056
727,334	-0,00061
727,518	-0,00068
727,703	-0,00058
727,887	-0,00066
728,072	-0,0006
728,256	-0,00073
728,44	-0,00075
728,624	-0,00063
728,809	-0,00086
728,993	-0,00089
729,177	-0,00095
729,361	-0,0009
729,546	-0,00091
729,73	-0,00094
729,914	-0,00103
730,098	-0,00109
730,282	-0,00115
730,466	-0,00116
730,65	-0,00118
730,834	-0,00105
731,019	-0,00119
731,203	-0,00121
731,387	-0,00117
731,571	-0,00117
731,755	-0,00124
731,939	-0,00114
732,123	-0,00116
732,306	-0,0011
732,49	-0,00114
732,674	-0,00121
732,858	-0,00123
733,042	-0,00115
733,226	-0,00112
733,41	-0,00118
733,594	-0,00118
733,778	-0,00121
733,961	-0,00112
734,145	-0,0011
734,329	-0,00107
734,513	-0,00096
734,696	-0,00098
734,88	-0,00098
735,064	-0,00098
735,247	-0,00105
735,431	-0,00112
735,615	-0,00119
735,798	-0,00115
735,982	-0,00117
736,166	-0,00116
736,349	-0,00125
736,533	-0,00122
736,716	-0,0011
736,9	-0,00123
737,083	-0,00123
737,267	-0,00126
737,45	-0,00125
737,634	-0,00115
737,817	-0,00123
738,001	-0,00131
738,184	-0,00136
738,368	-0,00129
738,551	-0,00145
738,734	-0,00162
738,918	-0,00146
739,101	-0,00137
739,284	-0,00142
739,468	-0,00147
739,651	-0,00143
739,834	-0,00137
740,018	-0,00141
740,201	-0,00139
740,384	-0,00139
740,567	-0,00123
740,75	-0,00115
740,934	-0,00129
741,117	-0,00142
741,3	-0,0013
741,483	-0,00116
741,666	-0,00129
741,849	-0,00125
742,032	-0,00125
742,215	-0,00131
742,399	-0,00125
742,582	-0,00126
742,765	-0,00123
742,948	-0,00112
743,131	-0,00098
743,314	-0,00099
743,496	-0,00104
743,679	-0,00103
743,862	-0,00108
744,045	-0,00103
744,228	-0,00098
744,411	-0,00115
744,594	-0,00124
744,777	-0,00129
744,959	-0,00127
745,142	-0,00127
745,325	-0,00125
745,508	-0,00139
745,691	-0,00122
745,873	-0,00133
746,056	-0,00132
746,239	-0,00136
746,421	-0,00121
746,604	-0,00128
746,787	-0,0012
746,969	-0,00134
747,152	-0,00156
747,335	-0,00165
747,517	-0,00154
747,7	-0,00163
747,882	-0,00159
748,065	-0,00164
748,247	-0,00157
748,43	-0,00167
748,612	-0,00159
748,795	-0,00164
748,977	-0,00163
749,16	-0,00159
749,342	-0,0015
749,524	-0,0015
749,707	-0,00152
749,889	-0,00141
750,072	-0,00138
750,254	-0,00138
750,436	-0,00143
750,619	-0,00145
750,801	-0,00155
750,983	-0,00152
751,165	-0,0015
751,348	-0,00161
751,53	-0,00168
751,712	-0,00172
751,894	-0,00182
752,076	-0,00175
752,259	-0,00175
752,441	-0,00175
752,623	-0,00174
752,805	-0,00179
752,987	-0,0018
753,169	-0,00176
753,351	-0,00173
753,533	-0,00172
753,715	-0,00171
753,897	-0,00165
754,079	-0,00171
754,261	-0,00175
754,443	-0,00171
754,625	-0,00169
754,807	-0,00154
754,989	-0,00144
755,171	-0,0014
755,353	-0,0014
755,534	-0,00141
755,716	-0,00145
755,898	-0,00152
756,08	-0,00151
756,262	-0,00158
756,443	-0,00171
756,625	-0,00173
756,807	-0,0019
756,989	-0,00201
757,17	-0,00199
757,352	-0,00203
757,534	-0,00197
757,715	-0,00201
757,897	-0,00198
758,079	-0,00202
758,26	-0,00191
758,442	-0,00175
758,623	-0,00189
758,805	-0,00175
758,987	-0,00175
759,168	-0,00189
759,35	-0,0019
759,531	-0,00189
759,713	-0,00189
759,894	-0,00189
760,075	-0,00193
760,257	-0,00209
760,438	-0,00212
760,62	-0,00203
760,801	-0,00214
760,982	-0,00217
761,164	-0,00215
761,345	-0,00212
761,526	-0,00207
761,708	-0,00202
761,889	-0,00209
762,07	-0,00205
762,251	-0,00174
762,433	-0,00174
762,614	-0,00177
762,795	-0,00174
762,976	-0,00169
763,157	-0,00159
763,338	-0,00166
763,52	-0,00171
763,701	-0,00172
763,882	-0,00166
764,063	-0,00158
764,244	-0,00172
764,425	-0,00171
764,606	-0,00177
764,787	-0,00173
764,968	-0,00173
765,149	-0,00182
765,33	-0,00177
765,511	-0,0019
765,692	-0,00197
765,873	-0,00196
766,053	-0,00217
766,234	-0,00228
766,415	-0,00221
766,596	-0,00224
766,777	-0,00229
766,958	-0,00234
767,138	-0,00228
767,319	-0,00233
767,5	-0,00226
767,681	-0,00232
767,861	-0,00228
768,042	-0,0022
768,223	-0,00209
768,403	-0,00223
768,584	-0,00208
768,765	-0,00201
768,945	-0,00206
769,126	-0,00206
769,307	-0,00202
769,487	-0,00206
769,668	-0,00193
769,848	-0,00202
770,029	-0,00197
770,209	-0,00209
770,39	-0,00208
770,57	-0,00213
770,751	-0,00212
770,931	-0,00211
771,111	-0,00221
771,292	-0,00222
771,472	-0,00217
771,653	-0,00219
771,833	-0,0022
772,013	-0,00224
772,194	-0,0021
772,374	-0,00219
772,554	-0,00217
772,734	-0,00223
772,915	-0,00215
773,095	-0,00204
773,275	-0,00205
773,455	-0,002
773,635	-0,00215
773,816	-0,00209
773,996	-0,002
774,176	-0,00198
774,356	-0,00186
774,536	-0,00185
774,716	-0,00183
774,896	-0,00191
775,076	-0,00201
775,256	-0,00198
775,436	-0,00193
775,616	-0,00176
775,796	-0,00172
775,976	-0,00179
776,156	-0,00185
776,336	-0,00191
776,516	-0,00194
776,696	-0,00206
776,876	-0,00193
777,056	-0,00198
777,235	-0,00196
777,415	-0,00201
777,595	-0,00217
777,775	-0,00223
777,955	-0,00233
778,134	-0,00244
778,314	-0,00236
778,494	-0,00235
778,674	-0,00227
778,853	-0,00242
779,033	-0,00239
779,213	-0,00243
779,392	-0,00243
779,572	-0,00231
779,751	-0,00238
779,931	-0,00224
780,111	-0,00227
780,29	-0,00239
780,47	-0,00242
780,649	-0,00253
780,829	-0,0024
781,008	-0,00231
781,188	-0,00225
781,367	-0,0023
781,546	-0,00227
781,726	-0,00222
781,905	-0,00229
782,085	-0,00236
782,264	-0,00224
782,443	-0,00226
782,623	-0,00222
782,802	-0,00227
782,981	-0,00237
783,161	-0,00246
783,34	-0,00239
783,519	-0,00242
783,698	-0,00243
783,878	-0,00242
784,057	-0,00225
784,236	-0,00226
784,415	-0,0021
784,594	-0,00194
784,773	-0,00191
784,952	-0,00187
785,132	-0,00188
785,311	-0,00192
785,49	-0,002
785,669	-0,002
785,848	-0,00202
786,027	-0,00212
786,206	-0,0021
786,385	-0,00224
786,564	-0,0024
786,743	-0,00243
786,922	-0,0023
787,1	-0,00229
787,279	-0,00233
787,458	-0,00223
787,637	-0,0021
787,816	-0,002
787,995	-0,00199
788,174	-0,00204
788,352	-0,00196
788,531	-0,0018
788,71	-0,00175
788,889	-0,00188
789,067	-0,00201
789,246	-0,00202
789,425	-0,00198
789,603	-0,00214
789,782	-0,00224
789,961	-0,00216
790,139	-0,00217
790,318	-0,00218
790,496	-0,00228
790,675	-0,00222
790,853	-0,00222
791,032	-0,00213
791,211	-0,00212
791,389	-0,00228
791,568	-0,0021
791,746	-0,002
791,924	-0,00202
792,103	-0,00209
792,281	-0,00219
792,46	-0,00224
792,638	-0,0023
792,816	-0,00231
792,995	-0,00225
793,173	-0,00225
793,351	-0,00214
793,53	-0,0022
793,708	-0,00221
793,886	-0,00212
794,064	-0,0021
794,243	-0,00193
794,421	-0,00186
794,599	-0,00195
794,777	-0,00203
794,955	-0,00208
795,133	-0,00208
795,312	-0,00215
795,49	-0,00219
795,668	-0,00231
795,846	-0,00243
796,024	-0,00235
796,202	-0,00252
796,38	-0,00263
796,558	-0,00269
796,736	-0,0026
796,914	-0,00257
797,092	-0,00264
797,27	-0,0026
797,448	-0,00272
797,626	-0,00278
797,803	-0,00283
797,981	-0,00298
798,159	-0,00305
798,337	-0,00303
798,515	-0,00293
798,693	-0,00298
798,87	-0,00301
799,048	-0,00292
799,226	-0,00295
799,404	-0,00297
799,581	-0,003
799,759	-0,00288
799,937	-0,0028
800,114	-0,00267
800,292	-0,00267
800,469	-0,00261
800,647	-0,00271
800,825	-0,00279
801,002	-0,00294
801,18	-0,00305
801,357	-0,00298
801,535	-0,00284
801,712	-0,00288
801,89	-0,00292
802,067	-0,00305
802,245	-0,00306
802,422	-0,00319
802,6	-0,00307
802,777	-0,00296
802,954	-0,00282
803,132	-0,00264
803,309	-0,00272
803,486	-0,00278
803,664	-0,0029
803,841	-0,00276
804,018	-0,00283
804,195	-0,00281
804,373	-0,00281
804,55	-0,00272
804,727	-0,00269
804,904	-0,00271
805,081	-0,00278
805,259	-0,00273
805,436	-0,00279
805,613	-0,00273
805,79	-0,00289
805,967	-0,00258
806,144	-0,00266
806,321	-0,00267
806,498	-0,00274
806,675	-0,00269
806,852	-0,00273
807,029	-0,00266
807,206	-0,0026
807,383	-0,00249
807,56	-0,00248
807,737	-0,0024
807,914	-0,00258
808,091	-0,00241
808,268	-0,00228
808,444	-0,00222
808,621	-0,00233
808,798	-0,00251
808,975	-0,00249
809,152	-0,00257
809,328	-0,00262
809,505	-0,00273
809,682	-0,00283
809,858	-0,00287
810,035	-0,00302
810,212	-0,00317
810,388	-0,00315
810,565	-0,00298
810,742	-0,00285
810,918	-0,00299
811,095	-0,00303
811,271	-0,00301
811,448	-0,00292
811,625	-0,00286
811,801	-0,00281
811,978	-0,00263
812,154	-0,00273
812,33	-0,00278
812,507	-0,00299
812,683	-0,00293
812,86	-0,00285
813,036	-0,00273
813,212	-0,00261
813,389	-0,00266
813,565	-0,00272
813,741	-0,00253
813,918	-0,00268
814,094	-0,00235
814,27	-0,00229
814,447	-0,0022
814,623	-0,00209
814,799	-0,00206
814,975	-0,00214
815,151	-0,0022
815,328	-0,0022
815,504	-0,00206
815,68	-0,00234
815,856	-0,00228
816,032	-0,00223
816,208	-0,00229
816,384	-0,0025
816,56	-0,00266
816,736	-0,00283
816,912	-0,00289
817,088	-0,00287
817,264	-0,00272
817,44	-0,00289
817,616	-0,00278
817,792	-0,00289
817,968	-0,00299
818,144	-0,00291
818,32	-0,00262
818,495	-0,00256
818,671	-0,0024
818,847	-0,00243
819,023	-0,00252
819,199	-0,00248
819,374	-0,00223
819,55	-0,00236
819,726	-0,00226
819,902	-0,00236
820,077	-0,00238
820,253	-0,00252
820,429	-0,00259
820,604	-0,00252
820,78	-0,00229
820,956	-0,00222
821,131	-0,00241
821,307	-0,00256
821,482	-0,00233
821,658	-0,00214
821,833	-0,00231
822,009	-0,00249
822,184	-0,00244
822,36	-0,00233
822,535	-0,00245
822,711	-0,00255
822,886	-0,00264
823,061	-0,00269
823,237	-0,00267
823,412	-0,00264
823,587	-0,00288
823,763	-0,00275
823,938	-0,00265
824,113	-0,00272
824,289	-0,003
824,464	-0,0029
824,639	-0,00293
824,814	-0,00289
824,99	-0,00278
825,165	-0,00284
825,34	-0,0029
825,515	-0,00277
825,69	-0,00282
825,865	-0,00273
826,04	-0,00264
826,215	-0,00224
826,39	-0,00196
826,566	-0,00195
826,741	-0,00179
826,916	-0,00166
827,091	-0,00161
827,265	-0,00165
827,44	-0,00174
827,615	-0,00163
827,79	-0,00183
827,965	-0,00184
828,14	-0,00207
828,315	-0,00218
828,49	-0,00217
828,665	-0,00222
828,839	-0,00249
829,014	-0,00248
829,189	-0,00271
829,364	-0,00269
829,538	-0,00246
829,713	-0,00232
829,888	-0,00233
830,063	-0,0024
830,237	-0,00281
830,412	-0,00278
830,587	-0,00289
830,761	-0,00273
830,936	-0,00269
831,11	-0,00248
831,285	-0,00268
831,459	-0,00286
831,634	-0,00293
831,809	-0,00296
831,983	-0,00296
832,157	-0,0028
832,332	-0,00285
832,506	-0,00282
832,681	-0,00278
832,855	-0,00297
833,03	-0,00312
833,204	-0,00295
833,378	-0,00314
833,553	-0,00325
833,727	-0,00325
833,901	-0,00321
834,076	-0,00299
834,25	-0,00295
834,424	-0,00295
834,598	-0,00299
834,773	-0,00275
834,947	-0,00248
835,121	-0,00243
835,295	-0,0023
835,469	-0,00229
835,643	-0,00226
835,817	-0,00225
835,991	-0,0026
836,166	-0,00275
836,34	-0,00276
836,514	-0,00277
836,688	-0,00283
836,862	-0,00301
837,036	-0,00316
837,21	-0,00319
837,384	-0,00324
837,557	-0,00312
837,731	-0,0031
837,905	-0,00297
838,079	-0,00295
838,253	-0,00296
838,427	-0,00304
838,601	-0,00321
838,774	-0,0032
838,948	-0,00305
839,122	-0,00291
839,296	-0,00271
839,469	-0,00275
839,643	-0,00289
839,817	-0,00305
839,991	-0,00309
840,164	-0,00302
840,338	-0,00319
840,512	-0,00301
840,685	-0,00299
840,859	-0,00302
841,032	-0,00314
841,206	-0,0031
841,379	-0,0034
841,553	-0,00309
841,726	-0,00285
841,9	-0,00263
842,073	-0,00252
842,247	-0,00231
842,42	-0,00241
842,594	-0,00239
842,767	-0,00245
842,94	-0,00256
843,114	-0,00251
843,287	-0,00219
843,46	-0,00259
843,634	-0,00267
843,807	-0,00282
843,98	-0,00287
844,154	-0,00277
844,327	-0,00285
844,5	-0,00304
844,673	-0,00301
844,846	-0,00292
845,02	-0,00293
845,193	-0,00309
845,366	-0,00295
845,539	-0,00312
845,712	-0,00313
845,885	-0,00343
846,058	-0,00362
846,231	-0,0037
846,404	-0,0036
846,577	-0,00361
846,75	-0,00354
846,923	-0,00363
847,096	-0,0036
847,269	-0,00338
847,442	-0,00326
847,615	-0,00316
847,788	-0,00301
847,961	-0,00279
848,133	-0,00248
848,306	-0,00228
848,479	-0,00234
848,652	-0,00231
848,825	-0,00237
848,997	-0,00248
849,17	-0,00271
849,343	-0,0025
849,515	-0,00258
849,688	-0,00254
849,861	-0,00258
850,033	-0,00264
850,206	-0,00279
850,379	-0,00288
850,551	-0,00279
850,724	-0,00254
850,896	-0,00259
851,069	-0,00244
851,241	-0,00255
851,414	-0,00242
851,586	-0,00258
851,759	-0,00265
851,931	-0,00281
852,104	-0,00289
852,276	-0,00269
852,449	-0,00286
852,621	-0,00311
852,793	-0,00312
852,966	-0,00322
853,138	-0,00303
853,31	-0,00305
853,483	-0,00291
853,655	-0,00281
853,827	-0,00287
853,999	-0,00274
854,172	-0,00272
854,344	-0,00279
854,516	-0,00269
854,688	-0,0024
854,86	-0,00241
855,032	-0,00272
855,204	-0,00281
855,377	-0,00281
855,549	-0,00286
855,721	-0,00289
855,893	-0,0029
856,065	-0,00303
856,237	-0,00309
856,409	-0,0033
856,581	-0,00355
856,753	-0,00333
856,924	-0,0034
857,096	-0,00325
857,268	-0,00321
857,44	-0,00324
857,612	-0,00302
857,784	-0,00321
857,956	-0,0031
858,127	-0,0029
858,299	-0,00269
858,471	-0,00262
858,643	-0,00287
858,814	-0,00269
858,986	-0,00281
859,158	-0,00288
859,33	-0,00275
859,501	-0,00295
859,673	-0,0028
859,844	-0,00288
860,016	-0,00289
860,188	-0,00292
860,359	-0,0029
860,531	-0,00282
860,702	-0,00281
860,874	-0,00286
861,045	-0,00286
861,217	-0,00315
861,388	-0,00291
861,56	-0,00309
861,731	-0,00319
861,902	-0,00325
862,074	-0,0031
862,245	-0,00299
862,417	-0,00292
862,588	-0,00291
862,759	-0,00299
862,931	-0,00296
863,102	-0,00277
863,273	-0,00293
863,444	-0,00285
863,616	-0,00248
863,787	-0,00263
863,958	-0,00271
864,129	-0,00282
864,3	-0,00314
864,471	-0,00316
864,642	-0,00295
864,814	-0,00311
864,985	-0,00309
865,156	-0,00323
865,327	-0,00327
865,498	-0,00342
865,669	-0,00348
865,84	-0,00357
866,011	-0,00362
866,182	-0,00344
866,353	-0,00358
866,523	-0,00358
866,694	-0,0032
866,865	-0,00326
867,036	-0,00324
867,207	-0,00321
867,378	-0,0034
867,549	-0,00345
867,719	-0,0036
867,89	-0,00376
868,061	-0,00364
868,232	-0,00365
868,402	-0,00391
868,573	-0,00421
868,744	-0,0041
868,914	-0,00408
869,085	-0,00404
869,256	-0,00397
869,426	-0,00373
869,597	-0,00356
869,767	-0,00338
869,938	-0,00325
870,108	-0,00322
870,279	-0,0033
870,449	-0,00348
870,62	-0,00383
870,79	-0,0037
870,961	-0,00339
871,131	-0,00343
871,302	-0,00335
871,472	-0,00329
871,642	-0,00338
871,813	-0,00373
871,983	-0,00385
872,153	-0,00344
872,324	-0,0035
872,494	-0,00354
872,664	-0,00369
872,835	-0,00358
873,005	-0,00336
873,175	-0,00362
873,345	-0,00366
873,515	-0,00372
873,685	-0,00367
873,856	-0,00342
874,026	-0,00359
874,196	-0,00317
874,366	-0,00305
874,536	-0,00294
874,706	-0,00328
874,876	-0,0036
875,046	-0,00355
875,216	-0,00358
875,386	-0,00317
875,556	-0,00293
875,726	-0,00328
875,896	-0,00346
876,066	-0,00382
876,236	-0,00398
876,405	-0,00394
876,575	-0,00401
876,745	-0,00391
876,915	-0,00367
877,085	-0,00354
877,254	-0,00391
877,424	-0,00393
877,594	-0,00366
877,764	-0,00343
877,933	-0,00322
878,103	-0,00307
878,273	-0,00284
878,442	-0,00283
878,612	-0,00293
878,781	-0,00304
878,951	-0,00321
879,121	-0,00327
879,29	-0,00348
879,46	-0,00332
879,629	-0,00318
879,799	-0,00303
879,968	-0,00276
880,138	-0,00277
880,307	-0,00302
880,476	-0,00271
880,646	-0,00281
880,815	-0,00288
880,985	-0,00275
881,154	-0,00264
881,323	-0,00304
881,493	-0,00324
881,662	-0,00358
881,831	-0,00359
882	-0,0039
882,17	-0,00359
882,339	-0,00405
882,508	-0,00389
882,677	-0,00341
882,846	-0,00324
883,016	-0,00339
883,185	-0,00319
883,354	-0,00341
883,523	-0,00342
883,692	-0,00362
883,861	-0,00353
884,03	-0,00405
884,199	-0,00389
884,368	-0,00388
884,537	-0,0046
884,706	-0,00457
884,875	-0,00444
885,044	-0,00436
885,213	-0,00407
885,382	-0,00403
885,55	-0,00411
885,719	-0,00416
885,888	-0,00388
886,057	-0,00405
886,226	-0,00428
886,395	-0,00394
886,563	-0,00412
886,732	-0,00391
886,901	-0,004
887,069	-0,00377
887,238	-0,00366
887,407	-0,00363
887,575	-0,00341
887,744	-0,00304
887,913	-0,00298
888,081	-0,00274
888,25	-0,00281
888,418	-0,00296
888,587	-0,00352
888,755	-0,00354
888,924	-0,00369
889,092	-0,00365
889,261	-0,00341
889,429	-0,00376
889,598	-0,00404
889,766	-0,0036
889,935	-0,00396
890,103	-0,00401
890,271	-0,00412
890,44	-0,00403
890,608	-0,00425
890,776	-0,00455
890,944	-0,00462
891,113	-0,00496
891,281	-0,00507
891,449	-0,00498
891,617	-0,00516
891,786	-0,00489
891,954	-0,00491
892,122	-0,00445
892,29	-0,00396
892,458	-0,00412
892,626	-0,00386
892,794	-0,00382
892,962	-0,00351
893,13	-0,00312
893,298	-0,0031
893,466	-0,00315
