Data from Chemiepractica_Absorbance__35__11-46-53-119.txt Node

Date: Mon Dec 09 11:46:53 CET 2024
User: r0948668
Spectrometer: USB4F07138
Trigger mode: 4
Integration Time (sec): 6,000000E-3
Scans to average: 20
Electric dark correction enabled: true
Nonlinearity correction enabled: false
Boxcar width: 5
XAxis mode: Wavelengths
Number of Pixels in Spectrum: 3648
>>>>>Begin Spectral Data<<<<<
176,779	-0
176,999	-0
177,218	-0
177,438	-1,51317
177,658	-0,72792
177,878	-0,47211
178,097	-0,03556
178,317	-0,10128
178,537	-0,10365
178,757	0,13491
178,976	0,17124
179,196	-0
179,416	-0,22173
179,635	-0,07274
179,855	0,10895
180,075	0,04872
180,294	-0,02298
180,514	-0,08677
180,734	-0,04975
180,953	-0,04303
181,173	-0,03174
181,392	-0,03778
181,612	-0,0293
181,832	0,00225
182,051	0,00658
182,271	-0,00693
182,49	-0,00917
182,71	-0,00911
182,929	0,00666
183,149	-0,00151
183,368	0,01349
183,588	0,00205
183,807	0,01611
184,027	0,03397
184,246	0,01605
184,466	0,00891
184,685	0,02168
184,905	0,01849
185,124	0,04115
185,344	0,03736
185,563	0,04943
185,782	0,04922
186,002	0,0595
186,221	0,06014
186,44	0,03061
186,66	0,03287
186,879	0,05382
187,099	0,04969
187,318	0,04584
187,537	0,02763
187,756	0,03784
187,976	0,01986
188,195	0,01886
188,414	0,02876
188,634	0,03345
188,853	0,05346
189,072	0,05121
189,291	0,03001
189,511	0,02854
189,73	0,05413
189,949	0,06518
190,168	0,05822
190,387	0,07981
190,607	0,07153
190,826	0,06066
191,045	0,03848
191,264	0,03042
191,483	0,02935
191,702	0,02947
191,921	0,02495
192,141	0,01719
192,36	0,00653
192,579	-0,0053
192,798	-0,00712
193,017	-0,00944
193,236	-0,00426
193,455	0,00667
193,674	0,01701
193,893	0,01732
194,112	0,03728
194,331	0,02919
194,55	0,02427
194,769	0,03513
194,988	0,03394
195,207	0,04244
195,426	0,04471
195,645	0,04542
195,864	0,04804
196,083	0,03332
196,302	0,02975
196,521	0,02273
196,739	0,03343
196,958	0,03406
197,177	0,03267
197,396	0,04678
197,615	0,04161
197,834	0,03346
198,053	0,02087
198,271	-0,00056
198,49	0,00849
198,709	0,0164
198,928	0,01172
199,147	0,00809
199,365	0,02231
199,584	0,01893
199,803	0,00956
200,022	-0,00052
200,24	-0,00098
200,459	0,01171
200,678	0,03203
200,897	0,02737
201,115	0,01982
201,334	0,02774
201,553	0,02156
201,771	0,00783
201,99	0,00063
202,209	0,00938
202,427	0,01384
202,646	0,02795
202,864	0,02035
203,083	0,00637
203,302	0,01689
203,52	0,02847
203,739	0,02274
203,957	0,03655
204,176	0,03375
204,394	0,04508
204,613	0,03949
204,831	0,04478
205,05	0,04559
205,268	0,05388
205,487	0,05463
205,705	0,04675
205,924	0,04194
206,142	0,04322
206,361	0,03687
206,579	0,04212
206,798	0,04693
207,016	0,0518
207,234	0,0404
207,453	0,03812
207,671	0,0388
207,89	0,05107
208,108	0,05367
208,326	0,0534
208,545	0,04734
208,763	0,05567
208,981	0,03651
209,2	0,01176
209,418	0,01459
209,636	0,00807
209,855	0,01248
210,073	0,00142
210,291	-0,01269
210,509	-0,02312
210,728	-0,0201
210,946	-0,0125
211,164	-0,01913
211,382	-0,00191
211,6	0,02044
211,819	0,01332
212,037	0,01423
212,255	-0,00891
212,473	-0,00387
212,691	0,00153
212,909	0,01651
213,128	0,00354
213,346	-0,00139
213,564	0,00326
213,782	-0,00455
214	-0,00581
214,218	0,01134
214,436	0,02444
214,654	0,02848
214,872	0,01925
215,09	0,00793
215,308	0,01323
215,526	0,0186
215,744	0,02378
215,962	0,01813
216,18	0,02047
216,398	0,02303
216,616	0,00449
216,834	-0,0058
217,052	0,00362
217,27	0,0119
217,488	0,02566
217,706	0,01909
217,924	0,01839
218,142	0,01939
218,36	0,03264
218,578	0,03469
218,795	0,02747
219,013	0,03026
219,231	0,02925
219,449	0,02493
219,667	0,02578
219,885	0,02724
220,102	0,03007
220,32	0,03493
220,538	0,04528
220,756	0,02833
220,973	0,03668
221,191	0,04318
221,409	0,04309
221,627	0,04895
221,844	0,05474
222,062	0,05544
222,28	0,04373
222,497	0,02937
222,715	0,03158
222,933	0,01745
223,15	0,01768
223,368	0,01203
223,586	0,01476
223,803	0,02191
224,021	0,01524
224,239	0,0178
224,456	0,01992
224,674	0,02647
224,891	0,03514
225,109	0,03275
225,326	0,02118
225,544	0,02785
225,762	0,01518
225,979	0,01347
226,197	0,00134
226,414	-0,00546
226,632	-0,00845
226,849	-0,02169
227,066	-0,01229
227,284	-0,00954
227,501	-0,00591
227,719	0,01566
227,936	0,01576
228,154	0,03511
228,371	0,03006
228,588	0,03223
228,806	0,04632
229,023	0,04493
229,241	0,06047
229,458	0,056
229,675	0,05712
229,893	0,04684
230,11	0,03923
230,327	0,03167
230,545	0,0283
230,762	0,02339
230,979	0,02418
231,196	0,02048
231,414	0,01946
231,631	0,00315
231,848	-0,00007
232,065	-0,0114
232,283	-0,0105
232,5	-0,0125
232,717	-0,01212
232,934	-0,02293
233,151	-0,01681
233,368	-0,01347
233,586	-0,01264
233,803	-0,0138
234,02	0,00526
234,237	-0,00187
234,454	-0,00113
234,671	0,01234
234,888	0,01627
235,105	0,02553
235,322	0,04583
235,54	0,04818
235,757	0,05274
235,974	0,05705
236,191	0,06308
236,408	0,05717
236,625	0,06938
236,842	0,06996
237,059	0,05803
237,276	0,05209
237,493	0,05277
237,71	0,04682
237,926	0,03671
238,143	0,02913
238,36	0,02624
238,577	0,01519
238,794	0,00664
239,011	0,00408
239,228	0,0134
239,445	0,00998
239,662	0,01806
239,878	0,024
240,095	0,01303
240,312	0,02502
240,529	0,02697
240,746	0,0246
240,963	0,03545
241,179	0,03732
241,396	0,04206
241,613	0,03367
241,83	0,04608
242,046	0,04137
242,263	0,04184
242,48	0,04704
242,697	0,04002
242,913	0,04396
243,13	0,03551
243,347	0,03557
243,563	0,04064
243,78	0,04458
243,997	0,05386
244,213	0,04274
244,43	0,05225
244,646	0,04625
244,863	0,04703
245,08	0,04913
245,296	0,04655
245,513	0,05074
245,729	0,05571
245,946	0,05858
246,162	0,04901
246,379	0,04172
246,595	0,05337
246,812	0,04652
247,028	0,0481
247,245	0,03779
247,461	0,03117
247,678	0,03096
247,894	0,04177
248,111	0,03258
248,327	0,02536
248,544	0,02289
248,76	0,03284
248,976	0,03053
249,193	0,0293
249,409	0,0293
249,626	0,03626
249,842	0,0368
250,058	0,03644
250,275	0,03719
250,491	0,03954
250,707	0,04568
250,924	0,05338
251,14	0,04798
251,356	0,04796
251,572	0,04072
251,789	0,04571
252,005	0,04652
252,221	0,04856
252,437	0,04476
252,654	0,04122
252,87	0,04058
253,086	0,04316
253,302	0,04065
253,518	0,04071
253,735	0,03217
253,951	0,02655
254,167	0,01231
254,383	-0,00083
254,599	-0,00279
254,815	0,00243
255,031	-0,00747
255,247	-0,01592
255,463	-0,02786
255,68	-0,01487
255,896	-0,01607
256,112	-0,01495
256,328	-0,00909
256,544	-0,00523
256,76	0,01111
256,976	0,01566
257,192	0,01791
257,408	0,02444
257,624	0,0355
257,84	0,03382
258,056	0,02762
258,272	0,02967
258,487	0,02607
258,703	0,02522
258,919	0,03041
259,135	0,03587
259,351	0,04019
259,567	0,04163
259,783	0,04582
259,999	0,04188
260,215	0,04686
260,43	0,03509
260,646	0,03509
260,862	0,0478
261,078	0,0556
261,294	0,03553
261,509	0,04142
261,725	0,0327
261,941	0,02917
262,157	0,03143
262,372	0,04242
262,588	0,04157
262,804	0,05014
263,019	0,04798
263,235	0,04678
263,451	0,04786
263,667	0,06136
263,882	0,05488
264,098	0,06132
264,313	0,06526
264,529	0,05554
264,745	0,05244
264,96	0,04707
265,176	0,04592
265,391	0,04801
265,607	0,04943
265,823	0,03614
266,038	0,04134
266,254	0,04195
266,469	0,0453
266,685	0,03534
266,9	0,04071
267,116	0,03554
267,331	0,04542
267,547	0,04604
267,762	0,04166
267,978	0,03288
268,193	0,04411
268,408	0,04242
268,624	0,04262
268,839	0,03167
269,055	0,03818
269,27	0,03511
269,485	0,038
269,701	0,0392
269,916	0,03626
270,132	0,04376
270,347	0,05417
270,562	0,05524
270,777	0,05243
270,993	0,04853
271,208	0,0591
271,423	0,07067
271,639	0,07604
271,854	0,06102
272,069	0,05721
272,284	0,04552
272,5	0,03945
272,715	0,03062
272,93	0,01766
273,145	0,01969
273,36	0,01867
273,576	0,01967
273,791	0,01174
274,006	0,0061
274,221	0,01178
274,436	0,01181
274,651	0,01794
274,866	0,02324
275,081	0,0313
275,296	0,046
275,512	0,04284
275,727	0,04309
275,942	0,03324
276,157	0,0262
276,372	0,03341
276,587	0,03773
276,802	0,04066
277,017	0,04228
277,232	0,04594
277,447	0,04101
277,662	0,034
277,877	0,02401
278,092	0,02493
278,306	0,02713
278,521	0,03858
278,736	0,03593
278,951	0,03632
279,166	0,03039
279,381	0,02995
279,596	0,0183
279,811	0,02328
280,025	0,01083
280,24	0,01823
280,455	0,02263
280,67	0,01696
280,885	0,00537
281,099	-0,00163
281,314	-0,0029
281,529	0,00626
281,744	0,01897
281,959	0,02422
282,173	0,02605
282,388	0,05284
282,603	0,04692
282,817	0,04618
283,032	0,0644
283,247	0,06338
283,461	0,07152
283,676	0,06738
283,891	0,06601
284,105	0,05672
284,32	0,05649
284,535	0,05572
284,749	0,04942
284,964	0,06673
285,178	0,06279
285,393	0,05718
285,607	0,05603
285,822	0,0527
286,036	0,05406
286,251	0,04719
286,465	0,05051
286,68	0,04967
286,894	0,04262
287,109	0,04454
287,323	0,02912
287,538	0,0299
287,752	0,02163
287,967	0,02552
288,181	0,02133
288,396	0,03252
288,61	0,04616
288,824	0,04029
289,039	0,04422
289,253	0,04452
289,467	0,04163
289,682	0,04385
289,896	0,03969
290,11	0,05012
290,325	0,04772
290,539	0,04725
290,753	0,03826
290,968	0,02544
291,182	0,02751
291,396	0,02297
291,61	0,03342
291,825	0,03485
292,039	0,03347
292,253	0,03603
292,467	0,02075
292,681	0,01884
292,896	0,01916
293,11	0,01278
293,324	0,01531
293,538	0,01596
293,752	0,01729
293,966	0,01938
294,18	0,00816
294,394	0,0072
294,608	0,01199
294,823	0,01667
295,037	0,02066
295,251	0,02519
295,465	0,02992
295,679	0,0285
295,893	0,0276
296,107	0,02363
296,321	0,01448
296,535	0,02026
296,749	0,02065
296,963	0,01573
297,177	0,01581
297,391	0,01121
297,604	0,00442
297,818	0,00449
298,032	0,00312
298,246	-0,0069
298,46	-0,00265
298,674	0,00301
298,888	0,00536
299,102	0,0153
299,315	0,0188
299,529	0,02603
299,743	0,04152
299,957	0,04326
300,171	0,04761
300,385	0,0559
300,598	0,07247
300,812	0,07203
301,026	0,06412
301,24	0,06524
301,453	0,05322
301,667	0,0447
301,881	0,0398
302,094	0,0268
302,308	0,02628
302,522	0,03025
302,735	0,02997
302,949	0,0203
303,163	0,0211
303,376	0,01734
303,59	0,02732
303,803	0,03142
304,017	0,04012
304,231	0,04023
304,444	0,04505
304,658	0,04629
304,871	0,04458
305,085	0,041
305,298	0,03991
305,512	0,03923
305,725	0,04344
305,939	0,03223
306,152	0,02796
306,366	0,01475
306,579	0,01391
306,793	0,01217
307,006	0,01681
307,22	0,01608
307,433	0,01234
307,646	0,01265
307,86	0,00914
308,073	0,01608
308,286	0,01518
308,5	0,01632
308,713	0,01876
308,926	0,02253
309,14	0,01699
309,353	0,01446
309,566	0,01276
309,78	0,00709
309,993	0,00902
310,206	0,01912
310,419	0,01545
310,633	0,00775
310,846	0,02249
311,059	0,02621
311,272	0,02294
311,486	0,03148
311,699	0,03154
311,912	0,03449
312,125	0,04249
312,338	0,03892
312,551	0,0332
312,764	0,0354
312,978	0,05119
313,191	0,03804
313,404	0,03332
313,617	0,02762
313,83	0,02265
314,043	0,02306
314,256	0,01289
314,469	0,00528
314,682	0,0106
314,895	0,00531
315,108	0,00574
315,321	-0,00148
315,534	0,00288
315,747	0,01398
315,96	0,02793
316,173	0,02206
316,386	0,01698
316,599	0,02569
316,812	0,03478
317,025	0,04307
317,237	0,05009
317,45	0,04652
317,663	0,04694
317,876	0,04745
318,089	0,04312
318,302	0,03281
318,515	0,03632
318,727	0,03743
318,94	0,03163
319,153	0,02946
319,366	0,02324
319,578	0,01554
319,791	0,01915
320,004	0,00649
320,217	0,00737
320,429	0,01084
320,642	0,01884
320,855	0,02134
321,067	0,01859
321,28	0,02062
321,493	0,01871
321,705	0,00974
321,918	0,01515
322,131	0,01483
322,343	0,02659
322,556	0,03243
322,768	0,02649
322,981	0,01652
323,194	0,0157
323,406	0,01745
323,619	0,0126
323,831	0,02165
324,044	0,03204
324,256	0,02464
324,469	0,01832
324,681	0,0158
324,894	0,01113
325,106	0,01402
325,319	0,01304
325,531	0,01638
325,743	0,01825
325,956	0,0229
326,168	0,01522
326,381	0,01691
326,593	0,0158
326,805	0,01724
327,018	0,01551
327,23	0,00907
327,442	0,01301
327,655	0,01136
327,867	0,01513
328,079	0,01278
328,292	0,01858
328,504	0,0297
328,716	0,02149
328,928	0,03649
329,141	0,04703
329,353	0,04603
329,565	0,04059
329,777	0,03748
329,99	0,04663
330,202	0,04553
330,414	0,04522
330,626	0,03754
330,838	0,03003
331,05	0,03534
331,263	0,02249
331,475	0,01732
331,687	0,02399
331,899	0,04407
332,111	0,04938
332,323	0,04903
332,535	0,04576
332,747	0,0515
332,959	0,05625
333,171	0,06169
333,383	0,05333
333,595	0,05594
333,807	0,05461
334,019	0,04386
334,231	0,02503
334,443	0,01854
334,655	0,01702
334,867	0,01468
335,079	0,0164
335,291	0,00629
335,503	-0,00134
335,714	0,0021
335,926	0,01362
336,138	0,01038
336,35	0,00926
336,562	0,01347
336,774	0,01493
336,986	0,0162
337,197	0,0202
337,409	0,01108
337,621	0,01296
337,833	0,02031
338,044	0,02699
338,256	0,0171
338,468	0,02261
338,68	0,0243
338,891	0,02545
339,103	0,01904
339,315	0,00724
339,526	0,00494
339,738	0,0047
339,95	0,00437
340,161	0,01065
340,373	-0,00214
340,585	-0,00501
340,796	-0,00778
341,008	0,00317
341,219	0,01286
341,431	0,01627
341,642	0,01904
341,854	0,02228
342,065	0,02731
342,277	0,03741
342,489	0,02937
342,7	0,03427
342,912	0,04426
343,123	0,04869
343,334	0,0465
343,546	0,03003
343,757	0,0384
343,969	0,03758
344,18	0,03722
344,392	0,04216
344,603	0,04043
344,814	0,03908
345,026	0,04555
345,237	0,03959
345,448	0,0292
345,66	0,0247
345,871	0,03334
346,082	0,03491
346,294	0,0391
346,505	0,03626
346,716	0,03662
346,927	0,03633
347,139	0,03814
347,35	0,03348
347,561	0,03176
347,772	0,02953
347,984	0,0302
348,195	0,03292
348,406	0,02094
348,617	0,0303
348,828	0,03394
349,039	0,03175
349,251	0,02588
349,462	0,01922
349,673	0,0141
349,884	0,02011
350,095	0,02795
350,306	0,0272
350,517	0,02657
350,728	0,02987
350,939	0,02153
351,15	0,01715
351,361	0,01361
351,572	0,02317
351,783	0,03133
351,994	0,04011
352,205	0,03803
352,416	0,03542
352,627	0,04311
352,838	0,03784
353,049	0,04395
353,26	0,04619
353,471	0,04373
353,682	0,04674
353,893	0,04301
354,103	0,04081
354,314	0,0357
354,525	0,03276
354,736	0,03796
354,947	0,03561
355,157	0,03808
355,368	0,03178
355,579	0,02332
355,79	0,03022
356,001	0,03006
356,211	0,02756
356,422	0,01709
356,633	0,02217
356,843	0,02179
357,054	0,0211
357,265	0,02511
357,476	0,02686
357,686	0,02436
357,897	0,03894
358,107	0,03259
358,318	0,03701
358,529	0,03863
358,739	0,05277
358,95	0,05122
359,16	0,05282
359,371	0,04622
359,582	0,04084
359,792	0,04332
360,003	0,04639
360,213	0,03844
360,424	0,04242
360,634	0,0416
360,845	0,03637
361,055	0,03227
361,266	0,03556
361,476	0,04208
361,686	0,04524
361,897	0,04404
362,107	0,03842
362,318	0,03863
362,528	0,0391
362,738	0,03414
362,949	0,02779
363,159	0,02628
363,369	0,0232
363,58	0,01741
363,79	0,00574
364	0,01104
364,211	0,00679
364,421	0,00831
364,631	0,01595
364,842	0,01637
365,052	0,02012
365,262	0,02101
365,472	0,02586
365,682	0,03012
365,893	0,02731
366,103	0,03178
366,313	0,02536
366,523	0,03353
366,733	0,03573
366,943	0,02987
367,154	0,03039
367,364	0,03727
367,574	0,04116
367,784	0,04172
367,994	0,04119
368,204	0,04762
368,414	0,04854
368,624	0,05271
368,834	0,0496
369,044	0,04778
369,254	0,04631
369,464	0,04763
369,674	0,04398
369,884	0,0381
370,094	0,03576
370,304	0,03492
370,514	0,03456
370,724	0,0308
370,934	0,02458
371,144	0,02193
371,353	0,02726
371,563	0,02749
371,773	0,03048
371,983	0,02921
372,193	0,03145
372,403	0,03682
372,612	0,03329
372,822	0,02894
373,032	0,03049
373,242	0,03533
373,452	0,0383
373,661	0,03836
373,871	0,03856
374,081	0,03396
374,29	0,0343
374,5	0,03528
374,71	0,0315
374,92	0,03419
375,129	0,04042
375,339	0,03924
375,549	0,03672
375,758	0,0377
375,968	0,03166
376,177	0,02771
376,387	0,02843
376,597	0,02342
376,806	0,02509
377,016	0,0239
377,225	0,02381
377,435	0,02075
377,644	0,02324
377,854	0,02668
378,063	0,02722
378,273	0,0289
378,482	0,03129
378,692	0,03651
378,901	0,03884
379,111	0,03818
379,32	0,04134
379,529	0,04159
379,739	0,04156
379,948	0,03743
380,158	0,03534
380,367	0,03284
380,576	0,0301
380,786	0,02909
380,995	0,02581
381,204	0,02692
381,414	0,02909
381,623	0,02962
381,832	0,02745
382,041	0,02768
382,251	0,03231
382,46	0,03135
382,669	0,02838
382,878	0,02934
383,088	0,02888
383,297	0,02641
383,506	0,02611
383,715	0,0217
383,924	0,01759
384,133	0,01945
384,342	0,01812
384,552	0,0186
384,761	0,02138
384,97	0,0238
385,179	0,02591
385,388	0,02865
385,597	0,02771
385,806	0,02588
386,015	0,02577
386,224	0,02846
386,433	0,02715
386,642	0,02347
386,851	0,02254
387,06	0,01912
387,269	0,01848
387,478	0,01884
387,687	0,01838
387,896	0,01742
388,105	0,01537
388,314	0,01529
388,523	0,01172
388,731	0,01458
388,94	0,01846
389,149	0,01962
389,358	0,02092
389,567	0,02347
389,776	0,02193
389,984	0,02052
390,193	0,02373
390,402	0,02345
390,611	0,02512
390,819	0,02695
391,028	0,02684
391,237	0,02708
391,446	0,02472
391,654	0,02309
391,863	0,02095
392,072	0,02078
392,28	0,02045
392,489	0,02016
392,698	0,02016
392,906	0,01785
393,115	0,02034
393,324	0,01957
393,532	0,01796
393,741	0,01765
393,949	0,0186
394,158	0,01719
394,366	0,01485
394,575	0,01422
394,783	0,01355
394,992	0,01564
395,2	0,01667
395,409	0,01504
395,617	0,01235
395,826	0,01327
396,034	0,01075
396,243	0,01144
396,451	0,01446
396,66	0,01999
396,868	0,01976
397,076	0,01877
397,285	0,01643
397,493	0,0158
397,701	0,01516
397,91	0,01575
398,118	0,01571
398,326	0,01765
398,535	0,0163
398,743	0,01628
398,951	0,01369
399,159	0,01761
399,368	0,01906
399,576	0,01913
399,784	0,02084
399,992	0,02069
400,201	0,02045
400,409	0,01701
400,617	0,01792
400,825	0,01947
401,033	0,0175
401,241	0,01777
401,45	0,01549
401,658	0,01646
401,866	0,02033
402,074	0,01824
402,282	0,01783
402,49	0,01839
402,698	0,02049
402,906	0,02003
403,114	0,01925
403,322	0,01993
403,53	0,01805
403,738	0,01747
403,946	0,01306
404,154	0,00913
404,362	0,01079
404,57	0,0092
404,778	0,00784
404,986	0,00915
405,194	0,01012
405,402	0,01057
405,609	0,00943
405,817	0,00916
406,025	0,00995
406,233	0,01496
406,441	0,01704
406,649	0,0154
406,856	0,01851
407,064	0,02002
407,272	0,02027
407,48	0,01702
407,687	0,01521
407,895	0,01635
408,103	0,01764
408,311	0,01775
408,518	0,01569
408,726	0,01481
408,934	0,01616
409,141	0,01395
409,349	0,01018
409,557	0,01083
409,764	0,01331
409,972	0,01442
410,18	0,01256
410,387	0,01114
410,595	0,01118
410,802	0,00917
411,01	0,00863
411,217	0,00933
411,425	0,01044
411,632	0,01334
411,84	0,01163
412,047	0,01088
412,255	0,01002
412,462	0,01141
412,67	0,01268
412,877	0,01264
413,085	0,01314
413,292	0,01391
413,499	0,01332
413,707	0,01333
413,914	0,01244
414,122	0,01309
414,329	0,0137
414,536	0,0144
414,744	0,01363
414,951	0,01258
415,158	0,01236
415,366	0,0112
415,573	0,01105
415,78	0,01072
415,987	0,00875
416,195	0,01046
416,402	0,0087
416,609	0,00894
416,816	0,00896
417,023	0,01104
417,231	0,01277
417,438	0,01283
417,645	0,01302
417,852	0,01169
418,059	0,01114
418,266	0,01126
418,473	0,01007
418,68	0,0126
418,888	0,01163
419,095	0,01233
419,302	0,00986
419,509	0,00756
419,716	0,00825
419,923	0,01045
420,13	0,01121
420,337	0,01278
420,544	0,01337
420,751	0,01301
420,958	0,01344
421,165	0,01368
421,371	0,01286
421,578	0,01294
421,785	0,01377
421,992	0,01314
422,199	0,01231
422,406	0,01469
422,613	0,01233
422,82	0,01264
423,026	0,01264
423,233	0,01056
423,44	0,0094
423,647	0,00845
423,854	0,00856
424,06	0,0075
424,267	0,00666
424,474	0,00634
424,681	0,00487
424,887	0,00516
425,094	0,00478
425,301	0,00622
425,507	0,00607
425,714	0,00641
425,921	0,00671
426,127	0,00579
426,334	0,00754
426,54	0,00862
426,747	0,00962
426,954	0,00831
427,16	0,00874
427,367	0,00824
427,573	0,00745
427,78	0,00792
427,986	0,00874
428,193	0,00869
428,399	0,01112
428,606	0,00989
428,812	0,00966
429,019	0,00896
429,225	0,01053
429,432	0,01081
429,638	0,01145
429,845	0,01061
430,051	0,01105
430,257	0,00994
430,464	0,01046
430,67	0,01
430,876	0,01095
431,083	0,01113
431,289	0,01139
431,495	0,01178
431,702	0,01131
431,908	0,01015
432,114	0,01062
432,32	0,0096
432,527	0,01
432,733	0,00967
432,939	0,00823
433,145	0,00799
433,351	0,00815
433,558	0,00871
433,764	0,00816
433,97	0,00676
434,176	0,00802
434,382	0,00878
434,588	0,00927
434,794	0,00886
435,001	0,0097
435,207	0,01064
435,413	0,01023
435,619	0,00997
435,825	0,00913
436,031	0,00944
436,237	0,01167
436,443	0,01193
436,649	0,01117
436,855	0,01127
437,061	0,01278
437,267	0,01216
437,473	0,0117
437,679	0,01246
437,884	0,01075
438,09	0,01089
438,296	0,00947
438,502	0,00834
438,708	0,00855
438,914	0,00824
439,12	0,00809
439,325	0,0075
439,531	0,0084
439,737	0,00856
439,943	0,00802
440,149	0,00987
440,354	0,00974
440,56	0,01021
440,766	0,00974
440,972	0,00905
441,177	0,00978
441,383	0,01014
441,589	0,01025
441,794	0,0101
442	0,01054
442,206	0,01086
442,411	0,01023
442,617	0,00995
442,822	0,01045
443,028	0,01155
443,234	0,01225
443,439	0,01265
443,645	0,01238
443,85	0,01331
444,056	0,01228
444,261	0,0126
444,467	0,01224
444,672	0,01165
444,878	0,01238
445,083	0,01226
445,289	0,012
445,494	0,01162
445,699	0,01147
445,905	0,01183
446,11	0,01159
446,316	0,01272
446,521	0,0126
446,726	0,01381
446,932	0,01462
447,137	0,01422
447,342	0,01433
447,548	0,01417
447,753	0,0143
447,958	0,0137
448,164	0,01333
448,369	0,01223
448,574	0,01159
448,779	0,01121
448,984	0,01058
449,19	0,01116
449,395	0,01149
449,6	0,01198
449,805	0,012
450,01	0,01183
450,215	0,01216
450,421	0,01326
450,626	0,01393
450,831	0,01349
451,036	0,01304
451,241	0,01298
451,446	0,01177
451,651	0,01186
451,856	0,01106
452,061	0,01182
452,266	0,012
452,471	0,01241
452,676	0,01156
452,881	0,01179
453,086	0,01313
453,291	0,01394
453,496	0,0141
453,701	0,01504
453,906	0,01484
454,111	0,01525
454,316	0,01515
454,52	0,0154
454,725	0,01485
454,93	0,01565
455,135	0,01583
455,34	0,0153
455,545	0,0156
455,749	0,01571
455,954	0,01537
456,159	0,01548
456,364	0,01597
456,568	0,0164
456,773	0,01676
456,978	0,01776
457,182	0,01832
457,387	0,01813
457,592	0,01835
457,796	0,01793
458,001	0,01809
458,206	0,01846
458,41	0,01845
458,615	0,01779
458,82	0,01746
459,024	0,01792
459,229	0,01762
459,433	0,01677
459,638	0,01662
459,842	0,01633
460,047	0,01665
460,251	0,01693
460,456	0,01641
460,66	0,01693
460,865	0,01712
461,069	0,01768
461,274	0,0172
461,478	0,0171
461,682	0,01703
461,887	0,01742
462,091	0,01781
462,296	0,01872
462,5	0,01868
462,704	0,01926
462,909	0,01916
463,113	0,01931
463,317	0,0192
463,522	0,01998
463,726	0,02025
463,93	0,02104
464,134	0,02133
464,339	0,02153
464,543	0,02093
464,747	0,02052
464,951	0,02139
465,155	0,02136
465,36	0,02257
465,564	0,02211
465,768	0,02153
465,972	0,02227
466,176	0,02232
466,38	0,02241
466,584	0,023
466,788	0,02318
466,993	0,02418
467,197	0,02382
467,401	0,02451
467,605	0,02381
467,809	0,02484
468,013	0,02524
468,217	0,02512
468,421	0,02489
468,625	0,02475
468,829	0,02439
469,033	0,02422
469,236	0,02467
469,44	0,02427
469,644	0,02365
469,848	0,02366
470,052	0,02412
470,256	0,02385
470,46	0,02396
470,664	0,02469
470,867	0,02503
471,071	0,02525
471,275	0,02569
471,479	0,02522
471,683	0,02594
471,886	0,02682
472,09	0,02728
472,294	0,02663
472,497	0,02699
472,701	0,02689
472,905	0,02636
473,109	0,02671
473,312	0,02637
473,516	0,02676
473,719	0,02691
473,923	0,02698
474,127	0,02694
474,33	0,02676
474,534	0,02692
474,737	0,02743
474,941	0,02774
475,145	0,02804
475,348	0,02805
475,552	0,0286
475,755	0,02864
475,959	0,02929
476,162	0,0298
476,366	0,03024
476,569	0,03056
476,772	0,03122
476,976	0,03121
477,179	0,03149
477,383	0,03165
477,586	0,03156
477,789	0,03185
477,993	0,03222
478,196	0,0321
478,399	0,03212
478,603	0,03207
478,806	0,03242
479,009	0,03221
479,213	0,0323
479,416	0,03205
479,619	0,03272
479,822	0,03345
480,026	0,03394
480,229	0,03411
480,432	0,03438
480,635	0,03471
480,838	0,0353
481,041	0,03507
481,245	0,03532
481,448	0,03523
481,651	0,03596
481,854	0,03618
482,057	0,03587
482,26	0,03598
482,463	0,03634
482,666	0,03678
482,869	0,03709
483,072	0,037
483,275	0,0374
483,478	0,03777
483,681	0,03876
483,884	0,03909
484,087	0,03904
484,29	0,03983
484,493	0,04025
484,696	0,04041
484,899	0,04061
485,102	0,04054
485,305	0,0406
485,508	0,04136
485,71	0,04173
485,913	0,0417
486,116	0,0418
486,319	0,04253
486,522	0,04275
486,725	0,04293
486,927	0,04343
487,13	0,04372
487,333	0,04429
487,536	0,04496
487,738	0,04546
487,941	0,04576
488,144	0,04622
488,346	0,0466
488,549	0,04653
488,752	0,04695
488,954	0,04722
489,157	0,04712
489,359	0,04733
489,562	0,04778
489,765	0,04782
489,967	0,04769
490,17	0,04815
490,372	0,04853
490,575	0,04865
490,777	0,04911
490,98	0,04916
491,182	0,04941
491,385	0,0499
491,587	0,05028
491,79	0,05046
491,992	0,05089
492,195	0,05126
492,397	0,05135
492,599	0,05149
492,802	0,052
493,004	0,05266
493,207	0,05311
493,409	0,0535
493,611	0,05387
493,814	0,05404
494,016	0,05411
494,218	0,05431
494,42	0,05474
494,623	0,0554
494,825	0,05575
495,027	0,05582
495,229	0,05593
495,432	0,05612
495,634	0,0566
495,836	0,05711
496,038	0,05755
496,24	0,05802
496,442	0,05853
496,645	0,0589
496,847	0,05928
497,049	0,05977
497,251	0,06038
497,453	0,06081
497,655	0,06134
497,857	0,06186
498,059	0,06226
498,261	0,06274
498,463	0,06345
498,665	0,06424
498,867	0,06459
499,069	0,06499
499,271	0,06534
499,473	0,06586
499,675	0,06634
499,877	0,06672
500,079	0,06692
500,281	0,06718
500,482	0,06764
500,684	0,06807
500,886	0,06821
501,088	0,0689
501,29	0,06924
501,492	0,06969
501,693	0,07016
501,895	0,07068
502,097	0,0712
502,299	0,07163
502,5	0,07214
502,702	0,07252
502,904	0,07314
503,106	0,07362
503,307	0,07384
503,509	0,07428
503,711	0,07485
503,912	0,07533
504,114	0,07542
504,315	0,07584
504,517	0,07634
504,719	0,07679
504,92	0,07738
505,122	0,07765
505,323	0,07809
505,525	0,07864
505,726	0,07919
505,928	0,07954
506,129	0,07984
506,331	0,08057
506,532	0,08128
506,734	0,08181
506,935	0,08263
507,137	0,083
507,338	0,08338
507,539	0,08395
507,741	0,0846
507,942	0,08499
508,143	0,08554
508,345	0,08634
508,546	0,08655
508,747	0,08696
508,949	0,08737
509,15	0,08731
509,351	0,08785
509,553	0,08824
509,754	0,08872
509,955	0,08877
510,156	0,08929
510,357	0,0899
510,559	0,0904
510,76	0,09106
510,961	0,09191
511,162	0,09275
511,363	0,09351
511,564	0,09405
511,766	0,09464
511,967	0,09529
512,168	0,0963
512,369	0,09716
512,57	0,09772
512,771	0,09847
512,972	0,09911
513,173	0,09965
513,374	0,10015
513,575	0,10075
513,776	0,10144
513,977	0,10203
514,178	0,10249
514,379	0,10285
514,58	0,10325
514,781	0,10403
514,981	0,10431
515,182	0,10477
515,383	0,10522
515,584	0,10592
515,785	0,10677
515,986	0,10737
516,187	0,10827
516,387	0,10903
516,588	0,10982
516,789	0,11039
516,99	0,11097
517,19	0,11171
517,391	0,11264
517,592	0,11317
517,793	0,11365
517,993	0,11444
518,194	0,11515
518,395	0,11576
518,595	0,11631
518,796	0,11698
518,996	0,1178
519,197	0,1183
519,398	0,11898
519,598	0,11957
519,799	0,12027
519,999	0,12084
520,2	0,12131
520,4	0,12193
520,601	0,12262
520,801	0,12326
521,002	0,12375
521,202	0,12442
521,403	0,12505
521,603	0,12558
521,804	0,126
522,004	0,12659
522,204	0,1272
522,405	0,1277
522,605	0,12825
522,806	0,12884
523,006	0,1295
523,206	0,13024
523,407	0,13081
523,607	0,13145
523,807	0,13215
524,007	0,13269
524,208	0,13343
524,408	0,13387
524,608	0,13458
524,808	0,13528
525,009	0,13596
525,209	0,13641
525,409	0,13709
525,609	0,13757
525,809	0,13852
526,009	0,1389
526,209	0,13997
526,41	0,14053
526,61	0,14155
526,81	0,14215
527,01	0,14273
527,21	0,14317
527,41	0,14385
527,61	0,14452
527,81	0,14525
528,01	0,14558
528,21	0,14647
528,41	0,14686
528,61	0,14733
528,81	0,14785
529,01	0,14844
529,21	0,14914
529,41	0,14954
529,609	0,15008
529,809	0,15059
530,009	0,15103
530,209	0,15164
530,409	0,15201
530,609	0,15261
530,808	0,15316
531,008	0,15371
531,208	0,15437
531,408	0,15483
531,608	0,15555
531,807	0,15609
532,007	0,15651
532,207	0,15693
532,406	0,15739
532,606	0,15808
532,806	0,15882
533,005	0,15951
533,205	0,15995
533,405	0,16024
533,604	0,16076
533,804	0,16133
534,003	0,16199
534,203	0,16252
534,403	0,16306
534,602	0,16361
534,802	0,16402
535,001	0,16451
535,201	0,16515
535,4	0,16544
535,6	0,16596
535,799	0,16639
535,998	0,16695
536,198	0,16745
536,397	0,16798
536,597	0,16849
536,796	0,16894
536,995	0,16936
537,195	0,16989
537,394	0,17004
537,594	0,17094
537,793	0,1715
537,992	0,172
538,191	0,17245
538,391	0,17279
538,59	0,17318
538,789	0,17366
538,988	0,17389
539,188	0,17444
539,387	0,17465
539,586	0,1752
539,785	0,17542
539,984	0,17574
540,184	0,1761
540,383	0,17649
540,582	0,17683
540,781	0,17742
540,98	0,17794
541,179	0,17856
541,378	0,17906
541,577	0,17928
541,776	0,17965
541,975	0,18002
542,174	0,18041
542,373	0,18066
542,572	0,18081
542,771	0,18123
542,97	0,18138
543,169	0,18168
543,368	0,18197
543,567	0,1821
543,766	0,18251
543,965	0,18286
544,164	0,18309
544,362	0,18356
544,561	0,18418
544,76	0,18459
544,959	0,18499
545,158	0,18525
545,356	0,1854
545,555	0,18568
545,754	0,18608
545,953	0,18649
546,151	0,18667
546,35	0,18692
546,549	0,1871
546,748	0,18719
546,946	0,18733
547,145	0,18768
547,344	0,18813
547,542	0,18836
547,741	0,18867
547,939	0,18874
548,138	0,18879
548,337	0,18906
548,535	0,18928
548,734	0,18936
548,932	0,18945
549,131	0,18965
549,329	0,18979
549,528	0,18992
549,726	0,1902
549,925	0,19028
550,123	0,1905
550,322	0,19082
550,52	0,19108
550,718	0,1914
550,917	0,19162
551,115	0,19174
551,313	0,19207
551,512	0,19231
551,71	0,19265
551,908	0,19296
552,107	0,19326
552,305	0,1935
552,503	0,19373
552,702	0,19377
552,9	0,19391
553,098	0,19406
553,296	0,19442
553,495	0,19452
553,693	0,19451
553,891	0,19463
554,089	0,19473
554,287	0,1948
554,485	0,19492
554,683	0,195
554,882	0,19528
555,08	0,19573
555,278	0,19601
555,476	0,19623
555,674	0,1966
555,872	0,19696
556,07	0,19706
556,268	0,19747
556,466	0,1977
556,664	0,19797
556,862	0,19819
557,06	0,19869
557,258	0,19885
557,456	0,19915
557,654	0,19949
557,851	0,19962
558,049	0,19984
558,247	0,20027
558,445	0,20033
558,643	0,20056
558,841	0,20084
559,039	0,20118
559,236	0,20119
559,434	0,20139
559,632	0,20166
559,83	0,20201
560,027	0,20226
560,225	0,20246
560,423	0,20265
560,62	0,20304
560,818	0,20338
561,016	0,20382
561,213	0,20409
561,411	0,2044
561,609	0,20454
561,806	0,20483
562,004	0,20493
562,202	0,2053
562,399	0,20559
562,597	0,20584
562,794	0,20612
562,992	0,20645
563,189	0,20676
563,387	0,20709
563,584	0,20768
563,782	0,20813
563,979	0,20854
564,177	0,20906
564,374	0,20944
564,571	0,20981
564,769	0,2102
564,966	0,21049
565,164	0,211
565,361	0,21127
565,558	0,21163
565,756	0,21178
565,953	0,21215
566,15	0,21248
566,347	0,21287
566,545	0,21327
566,742	0,21365
566,939	0,214
567,136	0,21433
567,334	0,2146
567,531	0,21498
567,728	0,21538
567,925	0,21589
568,122	0,21625
568,319	0,21661
568,517	0,21709
568,714	0,21767
568,911	0,21826
569,108	0,21882
569,305	0,21946
569,502	0,21996
569,699	0,22063
569,896	0,22114
570,093	0,22168
570,29	0,22232
570,487	0,22277
570,684	0,22328
570,881	0,22381
571,078	0,22428
571,275	0,22482
571,472	0,22525
571,669	0,22585
571,866	0,22647
572,062	0,227
572,259	0,22751
572,456	0,22801
572,653	0,22868
572,85	0,22903
573,047	0,22942
573,243	0,22997
573,44	0,23053
573,637	0,23094
573,834	0,23139
574,03	0,23191
574,227	0,23246
574,424	0,23315
574,62	0,23367
574,817	0,23443
575,014	0,23519
575,21	0,23587
575,407	0,23656
575,604	0,23708
575,8	0,23797
575,997	0,23879
576,193	0,23932
576,39	0,24006
576,586	0,24059
576,783	0,24131
576,979	0,24185
577,176	0,24238
577,372	0,24306
577,569	0,24355
577,765	0,24424
577,962	0,24485
578,158	0,24539
578,355	0,24584
578,551	0,24641
578,747	0,24695
578,944	0,24762
579,14	0,24822
579,336	0,24897
579,533	0,24941
579,729	0,25004
579,925	0,25056
580,122	0,25121
580,318	0,25177
580,514	0,25249
580,71	0,25294
580,906	0,25364
581,103	0,25435
581,299	0,25477
581,495	0,25523
581,691	0,25589
581,887	0,25652
582,084	0,25716
582,28	0,25762
582,476	0,25821
582,672	0,2587
582,868	0,25936
583,064	0,25974
583,26	0,26008
583,456	0,26068
583,652	0,26103
583,848	0,26152
584,044	0,26193
584,24	0,26227
584,436	0,26282
584,632	0,26313
584,828	0,26357
585,024	0,26397
585,22	0,26445
585,416	0,26465
585,611	0,26498
585,807	0,26546
586,003	0,26581
586,199	0,26612
586,395	0,26655
586,591	0,26658
586,786	0,2668
586,982	0,26699
587,178	0,26721
587,374	0,26715
587,569	0,26732
587,765	0,26739
587,961	0,26737
588,156	0,26748
588,352	0,26765
588,548	0,26768
588,743	0,26796
588,939	0,2681
589,135	0,2682
589,33	0,26822
589,526	0,26832
589,721	0,26844
589,917	0,2685
590,112	0,26855
590,308	0,26827
590,503	0,2682
590,699	0,26805
590,894	0,268
591,09	0,26795
591,285	0,26763
591,481	0,26749
591,676	0,26749
591,872	0,26709
592,067	0,26679
592,262	0,26665
592,458	0,26663
592,653	0,2663
592,848	0,26597
593,044	0,26551
593,239	0,26505
593,434	0,26468
593,629	0,2643
593,825	0,2637
594,02	0,26344
594,215	0,26304
594,41	0,2625
594,606	0,26193
594,801	0,26128
594,996	0,26093
595,191	0,26045
595,386	0,25989
595,581	0,25933
595,777	0,25865
595,972	0,25796
596,167	0,25725
596,362	0,25643
596,557	0,25579
596,752	0,25507
596,947	0,25441
597,142	0,25342
597,337	0,25267
597,532	0,25182
597,727	0,25104
597,922	0,2502
598,117	0,24929
598,312	0,24855
598,507	0,24777
598,701	0,24667
598,896	0,24561
599,091	0,24468
599,286	0,24382
599,481	0,2426
599,676	0,24154
599,87	0,24055
600,065	0,23944
600,26	0,23848
600,455	0,23722
600,65	0,23608
600,844	0,23496
601,039	0,23396
601,234	0,23275
601,428	0,23154
601,623	0,23032
601,818	0,22917
602,012	0,22791
602,207	0,22673
602,402	0,22555
602,596	0,22417
602,791	0,22289
602,985	0,22178
603,18	0,22032
603,374	0,21899
603,569	0,21777
603,763	0,21644
603,958	0,21517
604,152	0,21397
604,347	0,21257
604,541	0,21108
604,736	0,20985
604,93	0,20847
605,125	0,20688
605,319	0,20564
605,513	0,20431
605,708	0,20288
605,902	0,20159
606,096	0,2001
606,291	0,19852
606,485	0,19712
606,679	0,1958
606,874	0,19444
607,068	0,19299
607,262	0,19173
607,456	0,1902
607,65	0,18879
607,845	0,1873
608,039	0,18585
608,233	0,18427
608,427	0,18283
608,621	0,18135
608,815	0,17987
609,01	0,17834
609,204	0,17698
609,398	0,17557
609,592	0,17415
609,786	0,17264
609,98	0,17126
610,174	0,1698
610,368	0,16853
610,562	0,16711
610,756	0,16566
610,95	0,16428
611,144	0,16273
611,338	0,16113
611,532	0,15947
611,726	0,15798
611,919	0,1565
612,113	0,15503
612,307	0,15365
612,501	0,15209
612,695	0,15076
612,889	0,14935
613,082	0,14789
613,276	0,14655
613,47	0,14523
613,664	0,14385
613,857	0,14228
614,051	0,14095
614,245	0,13938
614,439	0,13789
614,632	0,13666
614,826	0,13514
615,02	0,13373
615,213	0,13246
615,407	0,13106
615,6	0,12961
615,794	0,12836
615,988	0,12722
616,181	0,12579
616,375	0,12458
616,568	0,12324
616,762	0,12184
616,955	0,12066
617,149	0,11934
617,342	0,11789
617,536	0,11675
617,729	0,11573
617,923	0,11437
618,116	0,11309
618,309	0,11179
618,503	0,11049
618,696	0,10928
618,889	0,10809
619,083	0,10668
619,276	0,10554
619,469	0,10432
619,663	0,10307
619,856	0,10171
620,049	0,10059
620,242	0,09948
620,436	0,09837
620,629	0,0974
620,822	0,09634
621,015	0,09508
621,209	0,09419
621,402	0,09307
621,595	0,09209
621,788	0,09101
621,981	0,08993
622,174	0,08882
622,367	0,08766
622,56	0,08657
622,753	0,08549
622,946	0,08439
623,139	0,08353
623,332	0,08245
623,525	0,08135
623,718	0,08035
623,911	0,07929
624,104	0,07839
624,297	0,07745
624,49	0,07663
624,683	0,0757
624,876	0,07478
625,069	0,07387
625,262	0,07302
625,454	0,072
625,647	0,0712
625,84	0,0701
626,033	0,06934
626,226	0,0684
626,418	0,06753
626,611	0,0667
626,804	0,0659
626,997	0,06486
627,189	0,06399
627,382	0,06299
627,575	0,06226
627,767	0,06143
627,96	0,06075
628,153	0,05989
628,345	0,05917
628,538	0,0584
628,731	0,05752
628,923	0,05675
629,116	0,05609
629,308	0,05529
629,501	0,05466
629,693	0,054
629,886	0,05333
630,078	0,0526
630,271	0,05193
630,463	0,05122
630,656	0,05059
630,848	0,0499
631,04	0,04933
631,233	0,0487
631,425	0,04812
631,617	0,04739
631,81	0,04673
632,002	0,04604
632,194	0,04542
632,387	0,04481
632,579	0,0442
632,771	0,04357
632,964	0,04308
633,156	0,04242
633,348	0,04186
633,54	0,04134
633,732	0,0408
633,925	0,04021
634,117	0,0398
634,309	0,03931
634,501	0,03875
634,693	0,03819
634,885	0,03768
635,077	0,0371
635,269	0,03666
635,462	0,03613
635,654	0,03562
635,846	0,03522
636,038	0,03483
636,23	0,03427
636,422	0,03372
636,614	0,03332
636,806	0,03296
636,997	0,03261
637,189	0,03218
637,381	0,03165
637,573	0,03131
637,765	0,03093
637,957	0,03036
638,149	0,02986
638,341	0,02949
638,532	0,02916
638,724	0,02877
638,916	0,02847
639,108	0,02794
639,299	0,02759
639,491	0,0272
639,683	0,02687
639,875	0,02649
640,066	0,02624
640,258	0,02582
640,45	0,02542
640,641	0,02519
640,833	0,02486
641,025	0,02443
641,216	0,02415
641,408	0,02385
641,599	0,02359
641,791	0,02325
641,982	0,02289
642,174	0,02255
642,366	0,02239
642,557	0,0221
642,748	0,02163
642,94	0,02127
643,131	0,02081
643,323	0,02049
643,514	0,0202
643,706	0,01996
643,897	0,01965
644,088	0,0194
644,28	0,01906
644,471	0,01874
644,662	0,01851
644,854	0,01834
645,045	0,01817
645,236	0,01794
645,428	0,01775
645,619	0,01744
645,81	0,01723
646,001	0,01695
646,193	0,01679
646,384	0,01661
646,575	0,01639
646,766	0,01609
646,957	0,01581
647,148	0,01541
647,339	0,0153
647,531	0,0151
647,722	0,01494
647,913	0,01459
648,104	0,01441
648,295	0,01409
648,486	0,01383
648,677	0,01354
648,868	0,0134
649,059	0,01325
649,25	0,01314
649,441	0,01305
649,632	0,01281
649,823	0,01258
650,013	0,01249
650,204	0,01233
650,395	0,0121
650,586	0,01204
650,777	0,01199
650,968	0,01182
651,159	0,01161
651,349	0,0114
651,54	0,01114
651,731	0,01089
651,922	0,01093
652,112	0,01076
652,303	0,01059
652,494	0,01056
652,684	0,01034
652,875	0,01017
653,066	0,01004
653,256	0,01001
653,447	0,00995
653,638	0,00987
653,828	0,0098
654,019	0,00955
654,209	0,00942
654,4	0,00935
654,59	0,00933
654,781	0,00931
654,972	0,00914
655,162	0,00901
655,352	0,00884
655,543	0,00865
655,733	0,00853
655,924	0,00858
656,114	0,00835
656,305	0,00824
656,495	0,00812
656,685	0,00788
656,876	0,00764
657,066	0,00754
657,256	0,00753
657,447	0,00741
657,637	0,0074
657,827	0,00725
658,017	0,00701
658,208	0,007
658,398	0,00683
658,588	0,00674
658,778	0,00675
658,968	0,00672
659,159	0,00665
659,349	0,00642
659,539	0,00637
659,729	0,00631
659,919	0,00634
660,109	0,00632
660,299	0,00633
660,489	0,00648
660,679	0,0063
660,869	0,00615
661,059	0,00612
661,249	0,00603
661,439	0,00598
661,629	0,0059
661,819	0,00579
662,009	0,00564
662,199	0,00559
662,389	0,00544
662,579	0,00518
662,769	0,00507
662,959	0,00503
663,149	0,00488
663,338	0,00488
663,528	0,00484
663,718	0,00476
663,908	0,00452
664,097	0,00432
664,287	0,00419
664,477	0,0041
664,667	0,00405
664,856	0,00408
665,046	0,00402
665,236	0,00404
665,425	0,00393
665,615	0,00391
665,805	0,0039
665,994	0,00406
666,184	0,00414
666,373	0,0041
666,563	0,00403
666,753	0,00402
666,942	0,00386
667,132	0,00372
667,321	0,00364
667,511	0,00357
667,7	0,00355
667,889	0,00335
668,079	0,0033
668,268	0,00321
668,458	0,00314
668,647	0,00316
668,836	0,00307
669,026	0,00309
669,215	0,00304
669,404	0,00308
669,594	0,00307
669,783	0,00302
669,972	0,0031
670,162	0,00304
670,351	0,00291
670,54	0,00283
670,729	0,00278
670,919	0,00278
671,108	0,00276
671,297	0,00279
671,486	0,00267
671,675	0,00263
671,864	0,00258
672,053	0,00247
672,243	0,00241
672,432	0,00253
672,621	0,0025
672,81	0,00247
672,999	0,0024
673,188	0,00247
673,377	0,00247
673,566	0,00246
673,755	0,0024
673,944	0,00227
674,133	0,00222
674,322	0,00222
674,51	0,00219
674,699	0,00219
674,888	0,00218
675,077	0,00218
675,266	0,00204
675,455	0,00201
675,644	0,00199
675,832	0,00192
676,021	0,00202
676,21	0,00215
676,399	0,00205
676,587	0,00197
676,776	0,00194
676,965	0,00187
677,153	0,00181
677,342	0,00176
677,531	0,00164
677,719	0,00155
677,908	0,00158
678,097	0,00154
678,285	0,00138
678,474	0,00138
678,662	0,00133
678,851	0,00133
679,039	0,00125
679,228	0,00123
679,416	0,0013
679,605	0,00131
679,793	0,00133
679,982	0,00132
680,17	0,00128
680,359	0,00136
680,547	0,00142
680,736	0,00149
680,924	0,00154
681,112	0,00151
681,301	0,00157
681,489	0,00156
681,677	0,00157
681,866	0,0015
682,054	0,00149
682,242	0,00143
682,43	0,00143
682,619	0,00134
682,807	0,00125
682,995	0,00109
683,183	0,00107
683,371	0,00103
683,559	0,00093
683,748	0,00086
683,936	0,00086
684,124	0,00086
684,312	0,00083
684,5	0,00069
684,688	0,00078
684,876	0,00075
685,064	0,00071
685,252	0,00075
685,44	0,00066
685,628	0,00063
685,816	0,00072
686,004	0,0007
686,192	0,00064
686,38	0,00065
686,568	0,00071
686,756	0,00054
686,944	0,00058
687,131	0,00069
687,319	0,0007
687,507	0,00069
687,695	0,0007
687,883	0,00061
688,07	0,00067
688,258	0,00065
688,446	0,00067
688,634	0,00064
688,821	0,00063
689,009	0,00055
689,197	0,00054
689,384	0,00053
689,572	0,00053
689,76	0,00053
689,947	0,00055
690,135	0,00049
690,323	0,00049
690,51	0,0004
690,698	0,00038
690,885	0,00047
691,073	0,00042
691,26	0,00036
691,448	0,00034
691,635	0,00033
691,823	0,00037
692,01	0,00032
692,197	0,00021
692,385	0,00021
692,572	0,00032
692,76	0,00038
692,947	0,00041
693,134	0,00053
693,322	0,00048
693,509	0,00041
693,696	0,00028
693,884	0,00019
694,071	0,00021
694,258	0,00036
694,445	0,00042
694,633	0,00031
694,82	0,00014
695,007	0,00012
695,194	0,00008
695,381	0,00009
695,568	0,00011
695,756	0,00022
695,943	0,00024
696,13	0,00017
696,317	0,00009
696,504	0,00007
696,691	0,00006
696,878	0,00014
697,065	-0,00005
697,252	-0,00005
697,439	-0,00004
697,626	-0,00007
697,813	-0,0001
698	-0,00017
698,187	-0,00023
698,374	-0,00023
698,561	-0,00027
698,747	-0,00028
698,934	-0,00031
699,121	-0,00018
699,308	-0,00033
699,495	-0,00039
699,682	-0,00034
699,868	-0,00043
700,055	-0,00045
700,242	-0,00046
700,429	-0,00049
700,615	-0,00055
700,802	-0,00054
700,989	-0,00056
701,175	-0,00069
701,362	-0,00061
701,549	-0,00062
701,735	-0,00061
701,922	-0,00058
702,108	-0,00048
702,295	-0,00042
702,482	-0,00048
702,668	-0,00044
702,855	-0,00039
703,041	-0,00032
703,228	-0,00018
703,414	-0,00021
703,601	-0,00022
703,787	-0,00024
703,973	-0,00027
704,16	-0,00038
704,346	-0,00037
704,533	-0,00034
704,719	-0,00039
704,905	-0,00046
705,092	-0,00049
705,278	-0,00061
705,464	-0,00057
705,65	-0,00049
705,837	-0,00058
706,023	-0,00051
706,209	-0,00044
706,395	-0,0004
706,582	-0,00034
706,768	-0,00028
706,954	-0,00021
707,14	-0,00025
707,326	-0,00033
707,512	-0,00038
707,698	-0,00039
707,885	-0,00041
708,071	-0,00041
708,257	-0,00041
708,443	-0,00036
708,629	-0,00036
708,815	-0,00045
709,001	-0,00054
709,187	-0,0006
709,373	-0,00044
709,559	-0,00041
709,745	-0,00052
709,93	-0,00054
710,116	-0,00056
710,302	-0,00054
710,488	-0,00061
710,674	-0,00065
710,86	-0,00064
711,046	-0,00062
711,231	-0,00058
711,417	-0,00062
711,603	-0,00067
711,789	-0,00072
711,974	-0,00069
712,16	-0,00077
712,346	-0,0009
712,532	-0,00092
712,717	-0,0009
712,903	-0,00091
713,089	-0,0009
713,274	-0,0009
713,46	-0,00098
713,645	-0,00093
713,831	-0,0008
714,016	-0,0008
714,202	-0,00068
714,388	-0,00043
714,573	-0,00049
714,759	-0,0005
714,944	-0,00046
715,129	-0,00049
715,315	-0,00042
715,5	-0,00047
715,686	-0,00047
715,871	-0,00049
716,057	-0,00051
716,242	-0,00046
716,427	-0,00065
716,613	-0,00061
716,798	-0,00065
716,983	-0,00076
717,168	-0,00075
717,354	-0,00074
717,539	-0,00063
717,724	-0,0007
717,909	-0,00066
718,095	-0,0006
718,28	-0,00074
718,465	-0,00074
718,65	-0,00079
718,835	-0,00088
719,02	-0,00082
719,206	-0,00084
719,391	-0,00087
719,576	-0,00094
719,761	-0,00096
719,946	-0,00104
720,131	-0,00112
720,316	-0,00108
720,501	-0,00115
720,686	-0,00106
720,871	-0,001
721,056	-0,00105
721,241	-0,00111
721,426	-0,00122
721,61	-0,00131
721,795	-0,00122
721,98	-0,00121
722,165	-0,00116
722,35	-0,00104
722,535	-0,00104
722,719	-0,00114
722,904	-0,00113
723,089	-0,00108
723,274	-0,00104
723,458	-0,00104
723,643	-0,00091
723,828	-0,00104
724,013	-0,00104
724,197	-0,00107
724,382	-0,00122
724,567	-0,00117
724,751	-0,00111
724,936	-0,00109
725,12	-0,00115
725,305	-0,0011
725,489	-0,00104
725,674	-0,0011
725,859	-0,00102
726,043	-0,00104
726,228	-0,00105
726,412	-0,00103
726,596	-0,00108
726,781	-0,001
726,965	-0,00103
727,15	-0,0009
727,334	-0,00094
727,518	-0,001
727,703	-0,00092
727,887	-0,00088
728,072	-0,00086
728,256	-0,00086
728,44	-0,00085
728,624	-0,00081
728,809	-0,00098
728,993	-0,00096
729,177	-0,001
729,361	-0,00098
729,546	-0,00092
729,73	-0,00091
729,914	-0,00103
730,098	-0,00105
730,282	-0,0011
730,466	-0,00105
730,65	-0,001
730,834	-0,00089
731,019	-0,00094
731,203	-0,001
731,387	-0,00093
731,571	-0,00102
731,755	-0,00114
731,939	-0,00106
732,123	-0,00108
732,306	-0,00098
732,49	-0,00106
732,674	-0,0012
732,858	-0,00125
733,042	-0,00129
733,226	-0,00121
733,41	-0,00122
733,594	-0,00115
733,778	-0,00111
733,961	-0,00108
734,145	-0,00102
734,329	-0,00104
734,513	-0,00102
734,696	-0,00095
734,88	-0,00094
735,064	-0,00093
735,247	-0,00107
735,431	-0,0011
735,615	-0,00118
735,798	-0,00112
735,982	-0,0011
736,166	-0,00106
736,349	-0,00108
736,533	-0,001
736,716	-0,00095
736,9	-0,00104
737,083	-0,00101
737,267	-0,00106
737,45	-0,0011
737,634	-0,00099
737,817	-0,00103
738,001	-0,0011
738,184	-0,0012
738,368	-0,00122
738,551	-0,00138
738,734	-0,00143
738,918	-0,00133
739,101	-0,00128
739,284	-0,00126
739,468	-0,00138
739,651	-0,00134
739,834	-0,00136
740,018	-0,00149
740,201	-0,00145
740,384	-0,00146
740,567	-0,00141
740,75	-0,00135
740,934	-0,00138
741,117	-0,00151
741,3	-0,00144
741,483	-0,00132
741,666	-0,00145
741,849	-0,00142
742,032	-0,00128
742,215	-0,00134
742,399	-0,00122
742,582	-0,00117
742,765	-0,00121
742,948	-0,00123
743,131	-0,00115
743,314	-0,00128
743,496	-0,00138
743,679	-0,0013
743,862	-0,00125
744,045	-0,00122
744,228	-0,00126
744,411	-0,00136
744,594	-0,00133
744,777	-0,00134
744,959	-0,00129
745,142	-0,00123
745,325	-0,00112
745,508	-0,0011
745,691	-0,00105
745,873	-0,00118
746,056	-0,0012
746,239	-0,00121
746,421	-0,00118
746,604	-0,00134
746,787	-0,00131
746,969	-0,00129
747,152	-0,00138
747,335	-0,00144
747,517	-0,0013
747,7	-0,00133
747,882	-0,0012
748,065	-0,00132
748,247	-0,00121
748,43	-0,00133
748,612	-0,00126
748,795	-0,00133
748,977	-0,00143
749,16	-0,00144
749,342	-0,00134
749,524	-0,00147
749,707	-0,00154
749,889	-0,00163
750,072	-0,00163
750,254	-0,0017
750,436	-0,00161
750,619	-0,0016
750,801	-0,00162
750,983	-0,00167
751,165	-0,00166
751,348	-0,00165
751,53	-0,00165
751,712	-0,0016
751,894	-0,00155
752,076	-0,0014
752,259	-0,00146
752,441	-0,00152
752,623	-0,00151
752,805	-0,00156
752,987	-0,0015
753,169	-0,00147
753,351	-0,00157
753,533	-0,00158
753,715	-0,00168
753,897	-0,00179
754,079	-0,00185
754,261	-0,00188
754,443	-0,00186
754,625	-0,00183
754,807	-0,00175
754,989	-0,00166
755,171	-0,00169
755,353	-0,00168
755,534	-0,00172
755,716	-0,00172
755,898	-0,00168
756,08	-0,0017
756,262	-0,00167
756,443	-0,00177
756,625	-0,00175
756,807	-0,00182
756,989	-0,00193
757,17	-0,002
757,352	-0,00204
757,534	-0,00192
757,715	-0,0019
757,897	-0,00189
758,079	-0,00194
758,26	-0,00189
758,442	-0,00175
758,623	-0,00188
758,805	-0,00186
758,987	-0,00192
759,168	-0,00197
759,35	-0,00191
759,531	-0,00195
759,713	-0,00202
759,894	-0,0021
760,075	-0,00201
760,257	-0,00211
760,438	-0,00216
760,62	-0,00206
760,801	-0,00199
760,982	-0,00199
761,164	-0,00201
761,345	-0,00199
761,526	-0,00202
761,708	-0,00195
761,889	-0,00188
762,07	-0,00196
762,251	-0,00176
762,433	-0,00179
762,614	-0,00187
762,795	-0,00193
762,976	-0,0019
763,157	-0,0018
763,338	-0,00198
763,52	-0,00208
763,701	-0,00206
763,882	-0,00212
764,063	-0,00208
764,244	-0,00216
764,425	-0,00212
764,606	-0,0022
764,787	-0,00224
764,968	-0,00226
765,149	-0,00231
765,33	-0,0022
765,511	-0,00219
765,692	-0,00232
765,873	-0,00233
766,053	-0,00237
766,234	-0,00249
766,415	-0,00249
766,596	-0,00254
766,777	-0,0026
766,958	-0,0026
767,138	-0,00256
767,319	-0,00252
767,5	-0,0024
767,681	-0,00242
767,861	-0,0023
768,042	-0,00231
768,223	-0,00231
768,403	-0,00247
768,584	-0,00239
768,765	-0,0024
768,945	-0,00245
769,126	-0,00246
769,307	-0,0025
769,487	-0,00254
769,668	-0,00244
769,848	-0,00256
770,029	-0,00249
770,209	-0,00252
770,39	-0,00243
770,57	-0,0024
770,751	-0,00235
770,931	-0,00234
771,111	-0,00246
771,292	-0,00247
771,472	-0,00247
771,653	-0,00248
771,833	-0,00249
772,013	-0,00253
772,194	-0,00237
772,374	-0,00239
772,554	-0,00241
772,734	-0,00234
772,915	-0,00223
773,095	-0,00212
773,275	-0,00207
773,455	-0,00214
773,635	-0,00226
773,816	-0,0022
773,996	-0,00209
774,176	-0,00215
774,356	-0,00214
774,536	-0,00205
774,716	-0,00216
774,896	-0,00227
775,076	-0,00242
775,256	-0,0025
775,436	-0,00238
775,616	-0,00228
775,796	-0,00227
775,976	-0,00236
776,156	-0,00237
776,336	-0,00235
776,516	-0,00242
776,696	-0,00242
776,876	-0,00229
777,056	-0,00221
777,235	-0,00219
777,415	-0,00221
777,595	-0,00231
777,775	-0,0023
777,955	-0,00248
778,134	-0,0025
778,314	-0,00249
778,494	-0,00244
778,674	-0,00243
778,853	-0,00252
779,033	-0,00249
779,213	-0,00246
779,392	-0,00252
779,572	-0,00237
779,751	-0,00252
779,931	-0,00247
780,111	-0,00245
780,29	-0,00253
780,47	-0,00263
780,649	-0,00263
780,829	-0,00258
781,008	-0,0026
781,188	-0,00262
781,367	-0,00258
781,546	-0,00266
781,726	-0,00265
781,905	-0,00253
782,085	-0,00261
782,264	-0,00261
782,443	-0,00256
782,623	-0,00252
782,802	-0,00247
782,981	-0,00249
783,161	-0,00252
783,34	-0,00256
783,519	-0,00249
783,698	-0,00241
783,878	-0,00247
784,057	-0,0025
784,236	-0,00239
784,415	-0,00234
784,594	-0,00228
784,773	-0,0024
784,952	-0,00233
785,132	-0,00232
785,311	-0,00226
785,49	-0,0024
785,669	-0,00245
785,848	-0,00236
786,027	-0,0023
786,206	-0,00237
786,385	-0,00241
786,564	-0,00247
786,743	-0,00238
786,922	-0,0023
787,1	-0,00232
787,279	-0,00236
787,458	-0,00226
787,637	-0,00224
787,816	-0,00226
787,995	-0,00233
788,174	-0,00237
788,352	-0,00233
788,531	-0,00233
788,71	-0,00237
788,889	-0,00253
789,067	-0,00257
789,246	-0,00269
789,425	-0,00269
789,603	-0,00265
789,782	-0,00273
789,961	-0,00259
790,139	-0,00252
790,318	-0,00252
790,496	-0,00244
790,675	-0,00235
790,853	-0,00233
791,032	-0,00231
791,211	-0,00216
791,389	-0,00216
791,568	-0,00209
791,746	-0,00202
791,924	-0,00199
792,103	-0,00196
792,281	-0,00202
792,46	-0,00207
792,638	-0,00214
792,816	-0,00211
792,995	-0,00205
793,173	-0,00221
793,351	-0,00219
793,53	-0,00219
793,708	-0,00216
793,886	-0,00219
794,064	-0,00233
794,243	-0,00223
794,421	-0,00221
794,599	-0,00219
794,777	-0,00231
794,955	-0,00237
795,133	-0,00219
795,312	-0,00234
795,49	-0,0025
795,668	-0,00256
795,846	-0,00267
796,024	-0,00251
796,202	-0,00267
796,38	-0,00276
796,558	-0,00288
796,736	-0,00284
796,914	-0,00274
797,092	-0,00295
797,27	-0,00283
797,448	-0,00279
797,626	-0,00288
797,803	-0,00294
797,981	-0,00308
798,159	-0,00307
798,337	-0,00302
798,515	-0,00296
798,693	-0,00281
798,87	-0,00297
799,048	-0,00286
799,226	-0,00285
799,404	-0,0029
799,581	-0,00288
799,759	-0,00284
799,937	-0,00291
800,114	-0,00289
800,292	-0,00305
800,469	-0,00298
800,647	-0,00306
800,825	-0,00297
801,002	-0,00306
801,18	-0,00318
801,357	-0,00314
801,535	-0,00315
801,712	-0,00314
801,89	-0,00298
802,067	-0,00299
802,245	-0,00299
802,422	-0,00311
802,6	-0,00314
802,777	-0,00311
802,954	-0,00304
803,132	-0,00293
803,309	-0,00296
803,486	-0,00297
803,664	-0,00281
803,841	-0,00266
804,018	-0,00268
804,195	-0,00259
804,373	-0,00265
804,55	-0,00261
804,727	-0,00268
804,904	-0,0027
805,081	-0,00264
805,259	-0,00275
805,436	-0,00284
805,613	-0,00297
805,79	-0,00329
805,967	-0,00325
806,144	-0,00326
806,321	-0,00322
806,498	-0,00318
806,675	-0,00313
806,852	-0,00315
807,029	-0,00335
807,206	-0,00329
807,383	-0,00303
807,56	-0,00293
807,737	-0,00277
807,914	-0,00279
808,091	-0,00268
808,268	-0,00254
808,444	-0,00261
808,621	-0,00271
808,798	-0,0029
808,975	-0,00273
809,152	-0,00276
809,328	-0,00284
809,505	-0,00299
809,682	-0,00302
809,858	-0,00307
810,035	-0,00317
810,212	-0,00326
810,388	-0,00325
810,565	-0,00295
810,742	-0,00284
810,918	-0,00293
811,095	-0,00293
811,271	-0,00298
811,448	-0,0029
811,625	-0,00291
811,801	-0,00286
811,978	-0,00275
812,154	-0,00292
812,33	-0,00283
812,507	-0,003
812,683	-0,00292
812,86	-0,00286
813,036	-0,00269
813,212	-0,00266
813,389	-0,0027
813,565	-0,00276
813,741	-0,00265
813,918	-0,00272
814,094	-0,00248
814,27	-0,00256
814,447	-0,00257
814,623	-0,00259
814,799	-0,00266
814,975	-0,00273
815,151	-0,00277
815,328	-0,00286
815,504	-0,00283
815,68	-0,00299
815,856	-0,00287
816,032	-0,00287
816,208	-0,00299
816,384	-0,00314
816,56	-0,00314
816,736	-0,0032
816,912	-0,00319
817,088	-0,00328
817,264	-0,00313
817,44	-0,003
817,616	-0,00295
817,792	-0,00319
817,968	-0,00313
818,144	-0,00294
818,32	-0,00273
818,495	-0,00275
818,671	-0,0027
818,847	-0,00281
819,023	-0,00276
819,199	-0,00273
819,374	-0,0028
819,55	-0,00292
819,726	-0,0028
819,902	-0,00285
820,077	-0,00306
820,253	-0,00315
820,429	-0,00318
820,604	-0,00303
820,78	-0,00284
820,956	-0,00299
821,131	-0,00314
821,307	-0,00311
821,482	-0,00291
821,658	-0,00284
821,833	-0,00306
822,009	-0,00313
822,184	-0,00313
822,36	-0,00296
822,535	-0,00312
822,711	-0,00325
822,886	-0,00304
823,061	-0,00306
823,237	-0,00312
823,412	-0,00313
823,587	-0,00324
823,763	-0,00316
823,938	-0,003
824,113	-0,00308
824,289	-0,00315
824,464	-0,00315
824,639	-0,00312
824,814	-0,00317
824,99	-0,00315
825,165	-0,00313
825,34	-0,00307
825,515	-0,00296
825,69	-0,0028
825,865	-0,00276
826,04	-0,00263
826,215	-0,00263
826,39	-0,00237
826,566	-0,00232
826,741	-0,00219
826,916	-0,00216
827,091	-0,00216
827,265	-0,00222
827,44	-0,0023
827,615	-0,0023
827,79	-0,00241
827,965	-0,00246
828,14	-0,0023
828,315	-0,00235
828,49	-0,00234
828,665	-0,00235
828,839	-0,00235
829,014	-0,00235
829,189	-0,00245
829,364	-0,0025
829,538	-0,00247
829,713	-0,0024
829,888	-0,00238
830,063	-0,00257
830,237	-0,00288
830,412	-0,00289
830,587	-0,003
830,761	-0,00306
830,936	-0,00311
831,11	-0,00309
831,285	-0,00317
831,459	-0,00324
831,634	-0,00336
831,809	-0,00343
831,983	-0,00348
832,157	-0,00344
832,332	-0,00352
832,506	-0,00343
832,681	-0,00339
832,855	-0,00335
833,03	-0,00349
833,204	-0,00348
833,378	-0,00345
833,553	-0,00329
833,727	-0,00307
833,901	-0,00293
834,076	-0,00272
834,25	-0,00262
834,424	-0,00273
834,598	-0,00258
834,773	-0,00257
834,947	-0,00241
835,121	-0,0023
835,295	-0,0024
835,469	-0,00243
835,643	-0,00259
835,817	-0,00261
835,991	-0,00287
836,166	-0,00294
836,34	-0,00275
836,514	-0,00288
836,688	-0,00293
836,862	-0,00286
837,036	-0,00284
837,21	-0,00272
837,384	-0,00283
837,557	-0,00274
837,731	-0,00266
837,905	-0,00233
838,079	-0,00237
838,253	-0,00271
838,427	-0,00276
838,601	-0,00281
838,774	-0,00292
838,948	-0,00303
839,122	-0,00306
839,296	-0,00292
839,469	-0,00294
839,643	-0,00305
839,817	-0,00333
839,991	-0,00337
840,164	-0,00309
840,338	-0,00313
840,512	-0,00297
840,685	-0,00299
840,859	-0,00293
841,032	-0,00306
841,206	-0,00308
841,379	-0,00309
841,553	-0,00298
841,726	-0,00278
841,9	-0,00254
842,073	-0,00247
842,247	-0,0023
842,42	-0,00237
842,594	-0,00231
842,767	-0,00241
842,94	-0,00222
843,114	-0,00211
843,287	-0,00218
843,46	-0,00235
843,634	-0,00264
843,807	-0,00277
843,98	-0,00294
844,154	-0,00294
844,327	-0,00302
844,5	-0,00295
844,673	-0,0027
844,846	-0,00294
845,02	-0,00295
845,193	-0,0032
845,366	-0,00328
845,539	-0,00318
845,712	-0,00318
845,885	-0,00344
846,058	-0,00347
846,231	-0,00338
846,404	-0,00347
846,577	-0,00367
846,75	-0,00343
846,923	-0,00346
847,096	-0,00321
847,269	-0,003
847,442	-0,00278
847,615	-0,00276
847,788	-0,00244
847,961	-0,00242
848,133	-0,00236
848,306	-0,0023
848,479	-0,00224
848,652	-0,00225
848,825	-0,00241
848,997	-0,00241
849,17	-0,00251
849,343	-0,00266
849,515	-0,00282
849,688	-0,00308
849,861	-0,00313
850,033	-0,00329
850,206	-0,0033
850,379	-0,00338
850,551	-0,00337
850,724	-0,00327
850,896	-0,00339
851,069	-0,00343
851,241	-0,00348
851,414	-0,00333
851,586	-0,00328
851,759	-0,0033
851,931	-0,00313
852,104	-0,00308
852,276	-0,00296
852,449	-0,00295
852,621	-0,003
852,793	-0,00311
852,966	-0,00309
853,138	-0,00308
853,31	-0,00313
853,483	-0,00304
853,655	-0,00315
853,827	-0,0034
853,999	-0,00345
854,172	-0,00351
854,344	-0,00359
854,516	-0,00347
854,688	-0,0032
854,86	-0,00338
855,032	-0,0033
855,204	-0,00316
855,377	-0,00322
855,549	-0,00316
855,721	-0,00302
855,893	-0,00317
856,065	-0,00333
856,237	-0,00344
856,409	-0,00368
856,581	-0,00378
856,753	-0,00363
856,924	-0,00369
857,096	-0,0039
857,268	-0,00364
857,44	-0,0038
857,612	-0,00371
857,784	-0,00386
857,956	-0,00364
858,127	-0,00358
858,299	-0,00371
858,471	-0,00372
858,643	-0,00367
858,814	-0,00364
858,986	-0,00351
859,158	-0,00388
859,33	-0,0036
859,501	-0,00372
859,673	-0,00347
859,844	-0,00356
860,016	-0,00356
860,188	-0,00328
860,359	-0,0032
860,531	-0,0032
860,702	-0,0033
860,874	-0,00353
861,045	-0,00355
861,217	-0,00371
861,388	-0,0036
861,56	-0,00356
861,731	-0,00366
861,902	-0,0036
862,074	-0,00367
862,245	-0,00357
862,417	-0,00351
862,588	-0,00345
862,759	-0,00336
862,931	-0,00328
863,102	-0,00318
863,273	-0,00339
863,444	-0,00363
863,616	-0,00352
863,787	-0,00352
863,958	-0,00357
864,129	-0,00388
864,3	-0,00416
864,471	-0,00418
864,642	-0,00388
864,814	-0,0039
864,985	-0,00399
865,156	-0,00419
865,327	-0,00411
865,498	-0,00399
865,669	-0,00426
865,84	-0,00412
866,011	-0,00391
866,182	-0,00373
866,353	-0,00388
866,523	-0,00439
866,694	-0,00399
866,865	-0,00379
867,036	-0,0035
867,207	-0,0035
867,378	-0,00366
867,549	-0,00371
867,719	-0,00392
867,89	-0,00406
868,061	-0,00403
868,232	-0,00407
868,402	-0,00387
868,573	-0,00439
868,744	-0,0046
868,914	-0,0047
869,085	-0,00482
869,256	-0,00488
869,426	-0,00489
869,597	-0,00464
869,767	-0,00474
869,938	-0,00477
870,108	-0,00447
870,279	-0,00456
870,449	-0,00443
870,62	-0,00453
870,79	-0,00434
870,961	-0,00405
871,131	-0,00389
871,302	-0,00358
871,472	-0,0038
871,642	-0,00364
871,813	-0,0037
871,983	-0,0038
872,153	-0,00389
872,324	-0,00395
872,494	-0,00384
872,664	-0,0041
872,835	-0,00397
873,005	-0,00359
873,175	-0,00358
873,345	-0,00351
873,515	-0,00359
873,685	-0,00367
873,856	-0,00344
874,026	-0,00321
874,196	-0,00312
874,366	-0,00326
874,536	-0,0031
874,706	-0,00344
874,876	-0,00405
875,046	-0,00429
875,216	-0,00437
875,386	-0,00409
875,556	-0,00369
875,726	-0,0041
875,896	-0,00424
876,066	-0,00403
876,236	-0,00425
876,405	-0,00428
876,575	-0,0043
876,745	-0,00421
876,915	-0,00361
877,085	-0,00359
877,254	-0,00369
877,424	-0,00392
877,594	-0,00365
877,764	-0,00367
877,933	-0,00382
878,103	-0,00358
878,273	-0,00342
878,442	-0,00344
878,612	-0,00334
878,781	-0,00386
878,951	-0,00369
879,121	-0,00399
879,29	-0,0041
879,46	-0,00412
879,629	-0,00373
879,799	-0,00372
879,968	-0,00323
880,138	-0,00297
880,307	-0,00293
880,476	-0,00289
880,646	-0,00295
880,815	-0,00315
880,985	-0,00305
881,154	-0,00296
881,323	-0,00296
881,493	-0,00326
881,662	-0,00324
881,831	-0,00336
882	-0,004
882,17	-0,0039
882,339	-0,00405
882,508	-0,00399
882,677	-0,00385
882,846	-0,00367
883,016	-0,0037
883,185	-0,00368
883,354	-0,00388
883,523	-0,00404
883,692	-0,00442
883,861	-0,00419
884,03	-0,00459
884,199	-0,00462
884,368	-0,00435
884,537	-0,00461
884,706	-0,00478
884,875	-0,00482
885,044	-0,00454
885,213	-0,0041
885,382	-0,00421
885,55	-0,00407
885,719	-0,004
885,888	-0,00394
886,057	-0,00415
886,226	-0,00456
886,395	-0,00415
886,563	-0,00403
886,732	-0,00425
886,901	-0,00457
887,069	-0,00491
887,238	-0,00452
887,407	-0,00446
887,575	-0,00446
887,744	-0,0042
887,913	-0,00397
888,081	-0,00393
888,25	-0,00392
888,418	-0,00406
888,587	-0,00404
888,755	-0,00409
888,924	-0,0039
889,092	-0,00394
889,261	-0,00409
889,429	-0,00413
889,598	-0,00416
889,766	-0,00374
889,935	-0,00346
890,103	-0,00369
890,271	-0,00396
890,44	-0,00361
890,608	-0,00372
890,776	-0,00388
890,944	-0,00399
891,113	-0,00366
891,281	-0,00376
891,449	-0,00387
891,617	-0,00436
891,786	-0,00453
891,954	-0,00466
892,122	-0,00392
892,29	-0,0041
892,458	-0,00442
892,626	-0,00411
892,794	-0,00412
892,962	-0,00442
893,13	-0,00435
893,298	-0,00404
893,466	-0,00389
