Data from Chemiepractica_Absorbance__28__11-44-33-117.txt Node

Date: Mon Dec 09 11:44:33 CET 2024
User: r0948668
Spectrometer: USB4F07138
Trigger mode: 4
Integration Time (sec): 6,000000E-3
Scans to average: 20
Electric dark correction enabled: true
Nonlinearity correction enabled: false
Boxcar width: 5
XAxis mode: Wavelengths
Number of Pixels in Spectrum: 3648
>>>>>Begin Spectral Data<<<<<
176,779	-0
176,999	-0
177,218	-0
177,438	-1,62245
177,658	-0,88476
177,878	-0,56686
178,097	-0,207
178,317	-0,24755
178,537	-0,18673
178,757	-0,06033
178,976	0,8451
179,196	-0
179,416	0,26163
179,635	-0,03556
179,855	-0,03991
180,075	-0,00865
180,294	-0,06009
180,514	-0,08164
180,734	-0,05521
180,953	-0,03041
181,173	-0,01644
181,392	-0,01797
181,612	-0,00541
181,832	0,00892
182,051	0,00628
182,271	0,00287
182,49	0,00151
182,71	0,01018
182,929	0,01826
183,149	0,01366
183,368	0,02093
183,588	0,01604
183,807	0,01478
184,027	0,02491
184,246	0,0259
184,466	0,03863
184,685	0,05807
184,905	0,05338
185,124	0,06091
185,344	0,05909
185,563	0,07386
185,782	0,07303
186,002	0,06857
186,221	0,05531
186,44	0,04736
186,66	0,05834
186,879	0,0801
187,099	0,0664
187,318	0,06089
187,537	0,04633
187,756	0,046
187,976	0,03219
188,195	0,0298
188,414	0,03744
188,634	0,05215
188,853	0,05521
189,072	0,03461
189,291	0,01425
189,511	0,02702
189,73	0,03712
189,949	0,04684
190,168	0,04422
190,387	0,06188
190,607	0,05768
190,826	0,05537
191,045	0,04488
191,264	0,0469
191,483	0,04214
191,702	0,03452
191,921	0,02744
192,141	0,03053
192,36	0,02403
192,579	0,03165
192,798	0,01991
193,017	0,0097
193,236	0,02702
193,455	0,03341
193,674	0,03307
193,893	0,03968
194,112	0,05033
194,331	0,04284
194,55	0,04686
194,769	0,04527
194,988	0,03196
195,207	0,0298
195,426	0,03051
195,645	0,01307
195,864	0,00946
196,083	0,0086
196,302	0,00101
196,521	-0,00496
196,739	-0,0084
196,958	-0,01588
197,177	-0,00502
197,396	0,00819
197,615	0,01048
197,834	0,0066
198,053	0,01179
198,271	0,00491
198,49	0,01405
198,709	0,02378
198,928	0,02848
199,147	0,041
199,365	0,05366
199,584	0,03542
199,803	0,01959
200,022	0,01831
200,24	0,03103
200,459	0,02797
200,678	0,03826
200,897	0,02142
201,115	0,01374
201,334	0,02245
201,553	0,01167
201,771	-0,00754
201,99	-0,00229
202,209	0,00963
202,427	0,00892
202,646	0,00741
202,864	0,00333
203,083	-0,00561
203,302	0,01746
203,52	0,03677
203,739	0,02632
203,957	0,03243
204,176	0,03938
204,394	0,04925
204,613	0,05467
204,831	0,06552
205,05	0,07596
205,268	0,08224
205,487	0,08467
205,705	0,07873
205,924	0,07401
206,142	0,07679
206,361	0,07666
206,579	0,07278
206,798	0,06466
207,016	0,05486
207,234	0,0335
207,453	0,03685
207,671	0,04777
207,89	0,05991
208,108	0,04329
208,326	0,02884
208,545	0,01929
208,763	0,02234
208,981	0,0141
209,2	0,00154
209,418	0,00508
209,636	0,01668
209,855	0,0112
210,073	-0,00522
210,291	-0,02103
210,509	-0,03117
210,728	-0,02149
210,946	-0,00676
211,164	-0,0049
211,382	0,01337
211,6	0,0418
211,819	0,04263
212,037	0,04259
212,255	0,01653
212,473	0,01724
212,691	0,02526
212,909	0,04851
213,128	0,04486
213,346	0,036
213,564	0,04485
213,782	0,04223
214	0,03866
214,218	0,03437
214,436	0,03731
214,654	0,04468
214,872	0,05163
215,09	0,0521
215,308	0,05126
215,526	0,05953
215,744	0,0607
215,962	0,04471
216,18	0,03434
216,398	0,02553
216,616	0,02571
216,834	0,02068
217,052	0,04632
217,27	0,0386
217,488	0,03483
217,706	0,04059
217,924	0,02617
218,142	0,02971
218,36	0,0368
218,578	0,05038
218,795	0,04616
219,013	0,04545
219,231	0,03983
219,449	0,01701
219,667	0,01945
219,885	0,03213
220,102	0,03452
220,32	0,03933
220,538	0,04142
220,756	0,0301
220,973	0,03245
221,191	0,0406
221,409	0,04103
221,627	0,04399
221,844	0,04917
222,062	0,05067
222,28	0,04292
222,497	0,02705
222,715	0,02692
222,933	0,02197
223,15	0,01725
223,368	0,01028
223,586	0,01582
223,803	0,0235
224,021	0,02343
224,239	0,02673
224,456	0,02341
224,674	0,02128
224,891	0,02332
225,109	0,03113
225,326	0,0262
225,544	0,03582
225,762	0,01992
225,979	0,01649
226,197	0,01505
226,414	0,0131
226,632	0,00224
226,849	-0,00545
227,066	-0,00455
227,284	0,0006
227,501	0,00405
227,719	0,0174
227,936	0,01677
228,154	0,04037
228,371	0,02278
228,588	0,02016
228,806	0,02842
229,023	0,03504
229,241	0,05458
229,458	0,05773
229,675	0,06119
229,893	0,05682
230,11	0,05497
230,327	0,05191
230,545	0,04208
230,762	0,05878
230,979	0,0631
231,196	0,06675
231,414	0,06314
231,631	0,04663
231,848	0,04289
232,065	0,03894
232,283	0,02801
232,5	0,02818
232,717	0,02155
232,934	0,00806
233,151	0,0089
233,368	0,00071
233,586	-0,01104
233,803	-0,0072
234,02	0,00483
234,237	0,00043
234,454	0,01269
234,671	0,03884
234,888	0,03115
235,105	0,04496
235,322	0,07417
235,54	0,0649
235,757	0,07943
235,974	0,07375
236,191	0,07364
236,408	0,07076
236,625	0,07642
236,842	0,05553
237,059	0,03738
237,276	0,03971
237,493	0,0536
237,71	0,04717
237,926	0,03974
238,143	0,03244
238,36	0,03063
238,577	0,02711
238,794	0,02798
239,011	0,02882
239,228	0,04274
239,445	0,03497
239,662	0,04849
239,878	0,0349
240,095	0,0297
240,312	0,05176
240,529	0,05027
240,746	0,06436
240,963	0,06908
241,179	0,06345
241,396	0,06787
241,613	0,0568
241,83	0,0657
242,046	0,05824
242,263	0,05426
242,48	0,05602
242,697	0,04014
242,913	0,03518
243,13	0,01468
243,347	0,01974
243,563	0,02119
243,78	0,02016
243,997	0,028
244,213	0,03532
244,43	0,03538
244,646	0,04289
244,863	0,03797
245,08	0,04606
245,296	0,05658
245,513	0,06608
245,729	0,06723
245,946	0,07113
246,162	0,06043
246,379	0,05687
246,595	0,04728
246,812	0,04024
247,028	0,04348
247,245	0,04213
247,461	0,03241
247,678	0,01902
247,894	0,02842
248,111	0,02013
248,327	0,01877
248,544	0,02686
248,76	0,03028
248,976	0,03428
249,193	0,04009
249,409	0,03401
249,626	0,03255
249,842	0,04834
250,058	0,05953
250,275	0,05897
250,491	0,05747
250,707	0,05865
250,924	0,05768
251,14	0,05975
251,356	0,05596
251,572	0,05619
251,789	0,05923
252,005	0,05919
252,221	0,05281
252,437	0,05508
252,654	0,04845
252,87	0,04452
253,086	0,05364
253,302	0,05526
253,518	0,05116
253,735	0,05482
253,951	0,05193
254,167	0,03955
254,383	0,03897
254,599	0,03257
254,815	0,02604
255,031	0,01438
255,247	0,01214
255,463	-0,00296
255,68	0,00908
255,896	0,01392
256,112	0,01511
256,328	0,01467
256,544	0,01954
256,76	0,02851
256,976	0,0233
257,192	0,02464
257,408	0,03219
257,624	0,03967
257,84	0,04746
258,056	0,03075
258,272	0,03144
258,487	0,01727
258,703	0,01744
258,919	0,02625
259,135	0,02422
259,351	0,0327
259,567	0,04076
259,783	0,05291
259,999	0,05714
260,215	0,05438
260,43	0,05176
260,646	0,0432
260,862	0,0634
261,078	0,06057
261,294	0,05055
261,509	0,04924
261,725	0,05167
261,941	0,03861
262,157	0,04656
262,372	0,04274
262,588	0,04323
262,804	0,05543
263,019	0,0563
263,235	0,04816
263,451	0,04778
263,667	0,05399
263,882	0,05954
264,098	0,06302
264,313	0,06962
264,529	0,05194
264,745	0,05971
264,96	0,05528
265,176	0,05514
265,391	0,05076
265,607	0,05515
265,823	0,05357
266,038	0,04713
266,254	0,04181
266,469	0,03754
266,685	0,031
266,9	0,02887
267,116	0,02684
267,331	0,03443
267,547	0,02997
267,762	0,03541
267,978	0,02232
268,193	0,02918
268,408	0,02707
268,624	0,02524
268,839	0,02972
269,055	0,02643
269,27	0,03775
269,485	0,0275
269,701	0,02238
269,916	0,01576
270,132	0,02361
270,347	0,03791
270,562	0,02853
270,777	0,03203
270,993	0,03508
271,208	0,03016
271,423	0,04124
271,639	0,04307
271,854	0,05326
272,069	0,05477
272,284	0,05614
272,5	0,04649
272,715	0,03519
272,93	0,04439
273,145	0,0427
273,36	0,05068
273,576	0,05519
273,791	0,04065
274,006	0,04051
274,221	0,03945
274,436	0,04965
274,651	0,05156
274,866	0,05873
275,081	0,06671
275,296	0,06132
275,512	0,06584
275,727	0,06761
275,942	0,0629
276,157	0,06834
276,372	0,06066
276,587	0,06544
276,802	0,05828
277,017	0,06083
277,232	0,06404
277,447	0,06075
277,662	0,06529
277,877	0,05894
278,092	0,04821
278,306	0,04584
278,521	0,04734
278,736	0,05028
278,951	0,04135
279,166	0,02821
279,381	0,03081
279,596	0,02197
279,811	0,02927
280,025	0,01891
280,24	0,02179
280,455	0,03318
280,67	0,03825
280,885	0,04061
281,099	0,0354
281,314	0,03107
281,529	0,04105
281,744	0,04533
281,959	0,03966
282,173	0,03535
282,388	0,04619
282,603	0,03912
282,817	0,02941
283,032	0,03157
283,247	0,02416
283,461	0,02931
283,676	0,02167
283,891	0,02306
284,105	0,0187
284,32	0,02869
284,535	0,02756
284,749	0,0257
284,964	0,04138
285,178	0,03724
285,393	0,0348
285,607	0,03984
285,822	0,04909
286,036	0,05969
286,251	0,06057
286,465	0,06868
286,68	0,07026
286,894	0,07399
287,109	0,07153
287,323	0,05836
287,538	0,06294
287,752	0,05859
287,967	0,05441
288,181	0,04009
288,396	0,04848
288,61	0,05648
288,824	0,04559
289,039	0,039
289,253	0,04349
289,467	0,04449
289,682	0,05387
289,896	0,05744
290,11	0,06425
290,325	0,07926
290,539	0,07391
290,753	0,07525
290,968	0,06029
291,182	0,05656
291,396	0,05545
291,61	0,05252
291,825	0,05831
292,039	0,05402
292,253	0,04921
292,467	0,0421
292,681	0,04008
292,896	0,05
293,11	0,03511
293,324	0,0478
293,538	0,05475
293,752	0,06218
293,966	0,06515
294,18	0,05767
294,394	0,04536
294,608	0,04651
294,823	0,049
295,037	0,04319
295,251	0,04326
295,465	0,04904
295,679	0,04216
295,893	0,03959
296,107	0,03198
296,321	0,02978
296,535	0,02838
296,749	0,03128
296,963	0,02484
297,177	0,02388
297,391	0,02155
297,604	0,01128
297,818	0,01541
298,032	0,0124
298,246	0,01276
298,46	0,01504
298,674	0,01006
298,888	0,01444
299,102	0,02735
299,315	0,03639
299,529	0,04762
299,743	0,04986
299,957	0,05545
300,171	0,0517
300,385	0,05668
300,598	0,05652
300,812	0,06055
301,026	0,05865
301,24	0,06289
301,453	0,05328
301,667	0,04273
301,881	0,03143
302,094	0,02556
302,308	0,02214
302,522	0,02277
302,735	0,01634
302,949	0,0109
303,163	0,00903
303,376	0,00767
303,59	0,01021
303,803	0,00954
304,017	0,01316
304,231	0,02013
304,444	0,0266
304,658	0,03323
304,871	0,03941
305,085	0,04131
305,298	0,03894
305,512	0,04019
305,725	0,04557
305,939	0,04112
306,152	0,04055
306,366	0,02928
306,579	0,02991
306,793	0,02741
307,006	0,02736
307,22	0,01989
307,433	0,02776
307,646	0,02729
307,86	0,02125
308,073	0,02678
308,286	0,01866
308,5	0,02224
308,713	0,0296
308,926	0,02758
309,14	0,02515
309,353	0,02274
309,566	0,02465
309,78	0,01154
309,993	0,01511
310,206	0,00996
310,419	0,00745
310,633	0,01453
310,846	0,01643
311,059	0,01625
311,272	0,01758
311,486	0,02378
311,699	0,01969
311,912	0,01703
312,125	0,02971
312,338	0,02703
312,551	0,03242
312,764	0,02457
312,978	0,02463
313,191	0,02451
313,404	0,02604
313,617	0,02485
313,83	0,02559
314,043	0,03693
314,256	0,03663
314,469	0,02655
314,682	0,03457
314,895	0,03245
315,108	0,03697
315,321	0,03828
315,534	0,04184
315,747	0,05086
315,96	0,05507
316,173	0,05356
316,386	0,04082
316,599	0,05038
316,812	0,05966
317,025	0,06287
317,237	0,06142
317,45	0,0587
317,663	0,06155
317,876	0,05774
318,089	0,05156
318,302	0,03641
318,515	0,03097
318,727	0,03773
318,94	0,02927
319,153	0,02074
319,366	0,01323
319,578	0,01735
319,791	0,02866
320,004	0,01502
320,217	0,01415
320,429	0,01572
320,642	0,02706
320,855	0,0268
321,067	0,01696
321,28	0,01858
321,493	0,0221
321,705	0,02187
321,918	0,02655
322,131	0,02065
322,343	0,02401
322,556	0,02565
322,768	0,02345
322,981	0,01369
323,194	0,01658
323,406	0,02341
323,619	0,01967
323,831	0,02037
324,044	0,03259
324,256	0,02506
324,469	0,01182
324,681	0,01998
324,894	0,01294
325,106	0,01975
325,319	0,02327
325,531	0,02275
325,743	0,02127
325,956	0,02337
326,168	0,02194
326,381	0,0195
326,593	0,01631
326,805	0,03149
327,018	0,02652
327,23	0,02556
327,442	0,02473
327,655	0,0169
327,867	0,01483
328,079	0,01593
328,292	0,02365
328,504	0,01959
328,716	0,01052
328,928	0,02132
329,141	0,02592
329,353	0,02761
329,565	0,03524
329,777	0,03388
329,99	0,04096
330,202	0,05071
330,414	0,04199
330,626	0,03357
330,838	0,044
331,05	0,04204
331,263	0,03704
331,475	0,03461
331,687	0,03661
331,899	0,04131
332,111	0,03237
332,323	0,02721
332,535	0,02275
332,747	0,03773
332,959	0,03751
333,171	0,02934
333,383	0,03252
333,595	0,03203
333,807	0,02617
334,019	0,02084
334,231	0,0171
334,443	0,02153
334,655	0,02595
334,867	0,01972
335,079	0,01376
335,291	0,01389
335,503	0,02314
335,714	0,02229
335,926	0,02545
336,138	0,02169
336,35	0,02768
336,562	0,02625
336,774	0,0224
336,986	0,02745
337,197	0,03184
337,409	0,02952
337,621	0,02203
337,833	0,01615
338,044	0,01958
338,256	0,02068
338,468	0,02373
338,68	0,02036
338,891	0,01633
339,103	0,01272
339,315	0,00667
339,526	0,00206
339,738	-0,00159
339,95	0,00403
340,161	0,01356
340,373	0,00554
340,585	-0,00338
340,796	-0,00136
341,008	0,00175
341,219	0,00584
341,431	0,01383
341,642	0,02047
341,854	0,02725
342,065	0,03725
342,277	0,03639
342,489	0,02968
342,7	0,03292
342,912	0,04575
343,123	0,04777
343,334	0,04759
343,546	0,03943
343,757	0,04158
343,969	0,03016
344,18	0,02757
344,392	0,02346
344,603	0,02986
344,814	0,0279
345,026	0,03425
345,237	0,02511
345,448	0,01984
345,66	0,01946
345,871	0,02881
346,082	0,02791
346,294	0,02608
346,505	0,0251
346,716	0,03001
346,927	0,03159
347,139	0,03385
347,35	0,03356
347,561	0,03694
347,772	0,03766
347,984	0,0371
348,195	0,04046
348,406	0,03397
348,617	0,05197
348,828	0,05708
349,039	0,05249
349,251	0,04761
349,462	0,04935
349,673	0,04077
349,884	0,03223
350,095	0,03761
350,306	0,03841
350,517	0,04181
350,728	0,0425
350,939	0,03251
351,15	0,03289
351,361	0,03158
351,572	0,04072
351,783	0,03734
351,994	0,04234
352,205	0,04916
352,416	0,04224
352,627	0,04705
352,838	0,04085
353,049	0,04379
353,26	0,04529
353,471	0,03739
353,682	0,03868
353,893	0,03045
354,103	0,02922
354,314	0,02505
354,525	0,02756
354,736	0,03235
354,947	0,03595
355,157	0,03773
355,368	0,04352
355,579	0,03529
355,79	0,04016
356,001	0,0375
356,211	0,04714
356,422	0,03453
356,633	0,04303
356,843	0,04614
357,054	0,04006
357,265	0,03428
357,476	0,03111
357,686	0,01993
357,897	0,03587
358,107	0,03169
358,318	0,03599
358,529	0,02797
358,739	0,04886
358,95	0,04736
359,16	0,04092
359,371	0,04066
359,582	0,0359
359,792	0,03763
360,003	0,04391
360,213	0,0327
360,424	0,03216
360,634	0,03792
360,845	0,03253
361,055	0,03083
361,266	0,02496
361,476	0,03068
361,686	0,03215
361,897	0,03506
362,107	0,03618
362,318	0,03822
362,528	0,03884
362,738	0,03813
362,949	0,02847
363,159	0,03272
363,369	0,0282
363,58	0,03219
363,79	0,02555
364	0,02278
364,211	0,0158
364,421	0,0106
364,631	0,0088
364,842	0,00939
365,052	0,00999
365,262	0,01252
365,472	0,01554
365,682	0,01799
365,893	0,01173
366,103	0,02128
366,313	0,02723
366,523	0,03652
366,733	0,03932
366,943	0,04568
367,154	0,04641
367,364	0,05638
367,574	0,05712
367,784	0,05954
367,994	0,0595
368,204	0,06872
368,414	0,06445
368,624	0,06096
368,834	0,05346
369,044	0,0561
369,254	0,04987
369,464	0,0546
369,674	0,04668
369,884	0,04175
370,094	0,03321
370,304	0,02699
370,514	0,02468
370,724	0,02041
370,934	0,02296
371,144	0,02595
371,353	0,02534
371,563	0,02666
371,773	0,02476
371,983	0,02782
372,193	0,02647
372,403	0,03081
372,612	0,03257
372,822	0,031
373,032	0,03211
373,242	0,03205
373,452	0,03337
373,661	0,03323
373,871	0,03366
374,081	0,03467
374,29	0,03457
374,5	0,03932
374,71	0,0372
374,92	0,03413
375,129	0,03644
375,339	0,03523
375,549	0,02964
375,758	0,0298
375,968	0,02696
376,177	0,02319
376,387	0,0159
376,597	0,01642
376,806	0,01927
377,016	0,02224
377,225	0,02535
377,435	0,02298
377,644	0,02432
377,854	0,02883
378,063	0,02937
378,273	0,0321
378,482	0,03447
378,692	0,03992
378,901	0,03734
379,111	0,03802
379,32	0,03879
379,529	0,03791
379,739	0,03999
379,948	0,04324
380,158	0,04426
380,367	0,04744
380,576	0,044
380,786	0,03739
380,995	0,03963
381,204	0,04242
381,414	0,04011
381,623	0,03848
381,832	0,04143
382,041	0,03988
382,251	0,03921
382,46	0,03622
382,669	0,02878
382,878	0,03049
383,088	0,03537
383,297	0,03511
383,506	0,03157
383,715	0,02799
383,924	0,02608
384,133	0,02361
384,342	0,02458
384,552	0,02201
384,761	0,02708
384,97	0,03167
385,179	0,03406
385,388	0,03416
385,597	0,03255
385,806	0,03362
386,015	0,03471
386,224	0,03705
386,433	0,0372
386,642	0,03581
386,851	0,03621
387,06	0,03261
387,269	0,0302
387,478	0,0286
387,687	0,02897
387,896	0,02724
388,105	0,02664
388,314	0,02549
388,523	0,02262
388,731	0,02338
388,94	0,0234
389,149	0,02374
389,358	0,02469
389,567	0,02684
389,776	0,02444
389,984	0,02287
390,193	0,0248
390,402	0,02359
390,611	0,0251
390,819	0,02654
391,028	0,02626
391,237	0,02695
391,446	0,02309
391,654	0,02149
391,863	0,01868
392,072	0,01926
392,28	0,01883
392,489	0,01626
392,698	0,01452
392,906	0,01374
393,115	0,01268
393,324	0,01315
393,532	0,01181
393,741	0,0108
393,949	0,01031
394,158	0,01185
394,366	0,01058
394,575	0,00879
394,783	0,0104
394,992	0,01369
395,2	0,01182
395,409	0,01344
395,617	0,01142
395,826	0,0124
396,034	0,01321
396,243	0,01631
396,451	0,01575
396,66	0,02039
396,868	0,02309
397,076	0,02099
397,285	0,01849
397,493	0,01982
397,701	0,01751
397,91	0,01652
398,118	0,01643
398,326	0,01924
398,535	0,01301
398,743	0,01341
398,951	0,00891
399,159	0,00855
399,368	0,01002
399,576	0,01115
399,784	0,01434
399,992	0,0145
400,201	0,01456
400,409	0,0134
400,617	0,01278
400,825	0,01817
401,033	0,01906
401,241	0,02206
401,45	0,02226
401,658	0,02279
401,866	0,02604
402,074	0,02306
402,282	0,02326
402,49	0,02308
402,698	0,02387
402,906	0,02191
403,114	0,01783
403,322	0,01508
403,53	0,01532
403,738	0,01528
403,946	0,01185
404,154	0,00856
404,362	0,0094
404,57	0,00868
404,778	0,00914
404,986	0,01038
405,194	0,01226
405,402	0,01433
405,609	0,0158
405,817	0,01179
406,025	0,01413
406,233	0,0172
406,441	0,01831
406,649	0,01514
406,856	0,0169
407,064	0,0168
407,272	0,01401
407,48	0,01286
407,687	0,0124
407,895	0,01193
408,103	0,01458
408,311	0,01197
408,518	0,01028
408,726	0,01085
408,934	0,01423
409,141	0,01365
409,349	0,01249
409,557	0,01313
409,764	0,01235
409,972	0,0127
410,18	0,01068
410,387	0,00955
410,595	0,00868
410,802	0,00678
411,01	0,00697
411,217	0,00583
411,425	0,00664
411,632	0,00861
411,84	0,00975
412,047	0,00997
412,255	0,00855
412,462	0,01064
412,67	0,0106
412,877	0,01121
413,085	0,01341
413,292	0,01256
413,499	0,01408
413,707	0,01385
413,914	0,014
414,122	0,0127
414,329	0,01337
414,536	0,01519
414,744	0,01418
414,951	0,01553
415,158	0,01685
415,366	0,01595
415,573	0,01609
415,78	0,01583
415,987	0,01488
416,195	0,01589
416,402	0,01516
416,609	0,01708
416,816	0,01694
417,023	0,01874
417,231	0,01797
417,438	0,01786
417,645	0,01708
417,852	0,01628
418,059	0,01574
418,266	0,01473
418,473	0,01319
418,68	0,01489
418,888	0,01302
419,095	0,01287
419,302	0,01229
419,509	0,01095
419,716	0,01062
419,923	0,0122
420,13	0,01226
420,337	0,01318
420,544	0,0145
420,751	0,01338
420,958	0,01344
421,165	0,0142
421,371	0,01198
421,578	0,01243
421,785	0,01354
421,992	0,01393
422,199	0,0144
422,406	0,01465
422,613	0,01415
422,82	0,01495
423,026	0,01635
423,233	0,0154
423,44	0,01362
423,647	0,01581
423,854	0,01441
424,06	0,01304
424,267	0,01179
424,474	0,01219
424,681	0,01251
424,887	0,01164
425,094	0,01077
425,301	0,01168
425,507	0,01076
425,714	0,01119
425,921	0,0106
426,127	0,01026
426,334	0,01117
426,54	0,01197
426,747	0,01109
426,954	0,01016
427,16	0,01064
427,367	0,01038
427,573	0,00902
427,78	0,00997
427,986	0,01094
428,193	0,01106
428,399	0,01245
428,606	0,01313
428,812	0,01426
429,019	0,01476
429,225	0,01516
429,432	0,01461
429,638	0,01464
429,845	0,01455
430,051	0,01511
430,257	0,01405
430,464	0,01355
430,67	0,01405
430,876	0,0137
431,083	0,01248
431,289	0,01262
431,495	0,01384
431,702	0,01447
431,908	0,01322
432,114	0,01297
432,32	0,01335
432,527	0,01307
432,733	0,01272
432,939	0,01162
433,145	0,01211
433,351	0,01216
433,558	0,01225
433,764	0,01145
433,97	0,00967
434,176	0,01098
434,382	0,01145
434,588	0,0108
434,794	0,01137
435,001	0,01215
435,207	0,01286
435,413	0,01187
435,619	0,01209
435,825	0,01186
436,031	0,01115
436,237	0,01276
436,443	0,01226
436,649	0,01323
436,855	0,01349
437,061	0,01388
437,267	0,01383
437,473	0,0138
437,679	0,01634
437,884	0,01542
438,09	0,01417
438,296	0,01359
438,502	0,0129
438,708	0,01343
438,914	0,01214
439,12	0,01211
439,325	0,01234
439,531	0,01318
439,737	0,01283
439,943	0,01057
440,149	0,01192
440,354	0,01303
440,56	0,01439
440,766	0,01382
440,972	0,01392
441,177	0,01525
441,383	0,01589
441,589	0,01579
441,794	0,01557
442	0,01569
442,206	0,01648
442,411	0,01565
442,617	0,01545
442,822	0,01605
443,028	0,01679
443,234	0,01839
443,439	0,01791
443,645	0,01661
443,85	0,01673
444,056	0,01661
444,261	0,01704
444,467	0,01685
444,672	0,01714
444,878	0,01762
445,083	0,0175
445,289	0,0182
445,494	0,0169
445,699	0,01716
445,905	0,01818
446,11	0,01944
446,316	0,01947
446,521	0,01909
446,726	0,01974
446,932	0,0195
447,137	0,0195
447,342	0,01908
447,548	0,01821
447,753	0,01849
447,958	0,01825
448,164	0,01804
448,369	0,01732
448,574	0,01644
448,779	0,01677
448,984	0,01623
449,19	0,01739
449,395	0,01691
449,6	0,01774
449,805	0,01797
450,01	0,01766
450,215	0,01799
450,421	0,01838
450,626	0,01804
450,831	0,01915
451,036	0,01922
451,241	0,01997
451,446	0,01901
451,651	0,01987
451,856	0,01914
452,061	0,01944
452,266	0,0197
452,471	0,02005
452,676	0,02036
452,881	0,02091
453,086	0,02133
453,291	0,02196
453,496	0,02132
453,701	0,02195
453,906	0,0215
454,111	0,02104
454,316	0,0217
454,52	0,02202
454,725	0,02147
454,93	0,02129
455,135	0,02097
455,34	0,02051
455,545	0,02013
455,749	0,02105
455,954	0,02108
456,159	0,02175
456,364	0,02324
456,568	0,02296
456,773	0,02325
456,978	0,02391
457,182	0,02445
457,387	0,02527
457,592	0,0256
457,796	0,02573
458,001	0,02565
458,206	0,02614
458,41	0,02618
458,615	0,02551
458,82	0,02583
459,024	0,02594
459,229	0,02656
459,433	0,02655
459,638	0,0261
459,842	0,02691
460,047	0,02674
460,251	0,02716
460,456	0,02639
460,66	0,02639
460,865	0,02705
461,069	0,02733
461,274	0,02748
461,478	0,0272
461,682	0,02746
461,887	0,02809
462,091	0,02775
462,296	0,02844
462,5	0,02885
462,704	0,02997
462,909	0,02967
463,113	0,0296
463,317	0,0299
463,522	0,03081
463,726	0,03115
463,93	0,03149
464,134	0,03175
464,339	0,032
464,543	0,03192
464,747	0,03173
464,951	0,03213
465,155	0,03301
465,36	0,03401
465,564	0,03414
465,768	0,03356
465,972	0,03416
466,176	0,03417
466,38	0,03461
466,584	0,03543
466,788	0,0358
466,993	0,03609
467,197	0,03574
467,401	0,03594
467,605	0,03534
467,809	0,03553
468,013	0,03595
468,217	0,03578
468,421	0,0358
468,625	0,03567
468,829	0,0354
469,033	0,03534
469,236	0,03602
469,44	0,03597
469,644	0,03603
469,848	0,03599
470,052	0,03683
470,256	0,03695
470,46	0,03713
470,664	0,03788
470,867	0,03856
471,071	0,03891
471,275	0,03938
471,479	0,03921
471,683	0,0398
471,886	0,04048
472,09	0,04146
472,294	0,04107
472,497	0,04142
472,701	0,04172
472,905	0,04184
473,109	0,04212
473,312	0,04249
473,516	0,04328
473,719	0,04381
473,923	0,04452
474,127	0,04486
474,33	0,04478
474,534	0,04547
474,737	0,04592
474,941	0,04611
475,145	0,04628
475,348	0,04626
475,552	0,04635
475,755	0,04663
475,959	0,04696
476,162	0,04762
476,366	0,04787
476,569	0,04835
476,772	0,04842
476,976	0,04886
477,179	0,04919
477,383	0,04912
477,586	0,04899
477,789	0,04945
477,993	0,04956
478,196	0,04979
478,399	0,04983
478,603	0,05034
478,806	0,05093
479,009	0,05145
479,213	0,05149
479,416	0,05163
479,619	0,05263
479,822	0,05379
480,026	0,05427
480,229	0,05438
480,432	0,05495
480,635	0,05509
480,838	0,05525
481,041	0,05518
481,245	0,0556
481,448	0,05587
481,651	0,05661
481,854	0,05685
482,057	0,05702
482,26	0,05743
482,463	0,0583
482,666	0,05834
482,869	0,05898
483,072	0,05955
483,275	0,06014
483,478	0,06035
483,681	0,06124
483,884	0,06133
484,087	0,06173
484,29	0,06233
484,493	0,06259
484,696	0,06288
484,899	0,06373
485,102	0,06381
485,305	0,06412
485,508	0,06475
485,71	0,0655
485,913	0,06582
486,116	0,06645
486,319	0,06718
486,522	0,06745
486,725	0,06806
486,927	0,06882
487,13	0,06938
487,333	0,07045
487,536	0,07095
487,738	0,07161
487,941	0,07192
488,144	0,07222
488,346	0,07284
488,549	0,07302
488,752	0,07362
488,954	0,07427
489,157	0,07416
489,359	0,07453
489,562	0,0748
489,765	0,0753
489,967	0,07557
490,17	0,07627
490,372	0,07688
490,575	0,07722
490,777	0,07796
490,98	0,07847
491,182	0,07868
491,385	0,07969
491,587	0,08006
491,79	0,08061
491,992	0,08122
492,195	0,08175
492,397	0,08213
492,599	0,08277
492,802	0,08335
493,004	0,08399
493,207	0,08449
493,409	0,08515
493,611	0,08562
493,814	0,08633
494,016	0,0866
494,218	0,08696
494,42	0,08732
494,623	0,08807
494,825	0,08855
495,027	0,08918
495,229	0,08957
495,432	0,09022
495,634	0,09094
495,836	0,09158
496,038	0,09222
496,24	0,09301
496,442	0,09362
496,645	0,09441
496,847	0,09486
497,049	0,0954
497,251	0,0962
497,453	0,09698
497,655	0,09751
497,857	0,09816
498,059	0,0989
498,261	0,09931
498,463	0,09994
498,665	0,10092
498,867	0,10189
499,069	0,10259
499,271	0,10322
499,473	0,10401
499,675	0,1047
499,877	0,10536
500,079	0,10613
500,281	0,1065
500,482	0,10753
500,684	0,10831
500,886	0,10882
501,088	0,10931
501,29	0,11012
501,492	0,11099
501,693	0,11162
501,895	0,11246
502,097	0,11317
502,299	0,1138
502,5	0,11462
502,702	0,11509
502,904	0,11588
503,106	0,11677
503,307	0,11725
503,509	0,11798
503,711	0,11882
503,912	0,11953
504,114	0,12001
504,315	0,1208
504,517	0,12137
504,719	0,12223
504,92	0,12287
505,122	0,12351
505,323	0,12397
505,525	0,12483
505,726	0,12546
505,928	0,12619
506,129	0,12686
506,331	0,12756
506,532	0,12856
506,734	0,1295
506,935	0,1304
507,137	0,13117
507,338	0,13199
507,539	0,13269
507,741	0,13386
507,942	0,13477
508,143	0,13566
508,345	0,13662
508,546	0,13769
508,747	0,13843
508,949	0,13921
509,15	0,13975
509,351	0,14071
509,553	0,14143
509,754	0,14256
509,955	0,14325
510,156	0,14408
510,357	0,14476
510,559	0,14536
510,76	0,1461
510,961	0,14706
511,162	0,14807
511,363	0,14917
511,564	0,15004
511,766	0,15125
511,967	0,15227
512,168	0,15303
512,369	0,15397
512,57	0,15503
512,771	0,15645
512,972	0,15726
513,173	0,15811
513,374	0,15894
513,575	0,15961
513,776	0,16066
513,977	0,16127
514,178	0,1622
514,379	0,1633
514,58	0,16437
514,781	0,16538
514,981	0,16627
515,182	0,16735
515,383	0,16837
515,584	0,16928
515,785	0,17049
515,986	0,17137
516,187	0,17261
516,387	0,17349
516,588	0,17437
516,789	0,17521
516,99	0,17602
517,19	0,17685
517,391	0,17789
517,592	0,1788
517,793	0,17999
517,993	0,1809
518,194	0,18195
518,395	0,18286
518,595	0,18381
518,796	0,18493
518,996	0,18582
519,197	0,18708
519,398	0,18802
519,598	0,18914
519,799	0,18999
519,999	0,1909
520,2	0,19207
520,4	0,19313
520,601	0,19419
520,801	0,19547
521,002	0,19647
521,202	0,19766
521,403	0,19848
521,603	0,19956
521,804	0,2001
522,004	0,20134
522,204	0,2025
522,405	0,2033
522,605	0,20416
522,806	0,20513
523,006	0,20585
523,206	0,20692
523,407	0,20803
523,607	0,20929
523,807	0,21025
524,007	0,21145
524,208	0,21249
524,408	0,21332
524,608	0,21445
524,808	0,21561
525,009	0,21669
525,209	0,21751
525,409	0,21848
525,609	0,21942
525,809	0,2202
526,009	0,22123
526,209	0,22238
526,41	0,22348
526,61	0,22485
526,81	0,22579
527,01	0,22663
527,21	0,22757
527,41	0,22885
527,61	0,22993
527,81	0,23072
528,01	0,23168
528,21	0,23278
528,41	0,23342
528,61	0,23429
528,81	0,23485
529,01	0,23578
529,21	0,23697
529,41	0,23779
529,609	0,23845
529,809	0,2391
530,009	0,2401
530,209	0,24112
530,409	0,24166
530,609	0,24295
530,808	0,24378
531,008	0,24484
531,208	0,2458
531,408	0,24667
531,608	0,24755
531,807	0,24862
532,007	0,24972
532,207	0,25059
532,406	0,25137
532,606	0,25251
532,806	0,25323
533,005	0,25393
533,205	0,25451
533,405	0,25522
533,604	0,25608
533,804	0,2569
534,003	0,25763
534,203	0,25831
534,403	0,25877
534,602	0,25956
534,802	0,25999
535,001	0,26091
535,201	0,26173
535,4	0,26247
535,6	0,26332
535,799	0,26383
535,998	0,26453
536,198	0,26514
536,397	0,26578
536,597	0,26684
536,796	0,26757
536,995	0,26866
537,195	0,26924
537,394	0,2699
537,594	0,27079
537,793	0,27134
537,992	0,27218
538,191	0,27303
538,391	0,27397
538,59	0,27463
538,789	0,27551
538,988	0,27595
539,188	0,27651
539,387	0,27729
539,586	0,27791
539,785	0,27852
539,984	0,27938
540,184	0,27998
540,383	0,28071
540,582	0,28137
540,781	0,28215
540,98	0,28273
541,179	0,28359
541,378	0,28417
541,577	0,28454
541,776	0,28539
541,975	0,28592
542,174	0,28635
542,373	0,28678
542,572	0,28724
542,771	0,28769
542,97	0,28816
543,169	0,28857
543,368	0,289
543,567	0,28964
543,766	0,29017
543,965	0,29061
544,164	0,2913
544,362	0,29194
544,561	0,29256
544,76	0,29315
544,959	0,2938
545,158	0,29441
545,356	0,29468
545,555	0,29513
545,754	0,29548
545,953	0,29606
546,151	0,29642
546,35	0,29673
546,549	0,29704
546,748	0,29735
546,946	0,2976
547,145	0,29769
547,344	0,29802
547,542	0,29851
547,741	0,29893
547,939	0,29923
548,138	0,29936
548,337	0,29972
548,535	0,29991
548,734	0,30019
548,932	0,30047
549,131	0,30085
549,329	0,30122
549,528	0,30163
549,726	0,30194
549,925	0,30219
550,123	0,30246
550,322	0,30293
550,52	0,30321
550,718	0,30377
550,917	0,30411
551,115	0,30445
551,313	0,30481
551,512	0,30541
551,71	0,30547
551,908	0,30578
552,107	0,3062
552,305	0,30641
552,503	0,30659
552,702	0,30694
552,9	0,30715
553,098	0,30752
553,296	0,30773
553,495	0,30802
553,693	0,30801
553,891	0,3085
554,089	0,30869
554,287	0,30899
554,485	0,30936
554,683	0,30986
554,882	0,31013
555,08	0,31056
555,278	0,31091
555,476	0,3114
555,674	0,31163
555,872	0,31208
556,07	0,31232
556,268	0,31287
556,466	0,3132
556,664	0,31362
556,862	0,31375
557,06	0,31415
557,258	0,31441
557,456	0,31488
557,654	0,31522
557,851	0,31559
558,049	0,31591
558,247	0,31642
558,445	0,31677
558,643	0,31719
558,841	0,31762
559,039	0,31832
559,236	0,31869
559,434	0,31912
559,632	0,31938
559,83	0,32006
560,027	0,32053
560,225	0,32107
560,423	0,3214
560,62	0,32198
560,818	0,32223
561,016	0,32277
561,213	0,32307
561,411	0,32362
561,609	0,32425
561,806	0,32459
562,004	0,32496
562,202	0,32535
562,399	0,32583
562,597	0,32637
562,794	0,32663
562,992	0,32739
563,189	0,32773
563,387	0,32841
563,584	0,32909
563,782	0,32942
563,979	0,33017
564,177	0,33064
564,374	0,33133
564,571	0,33198
564,769	0,33256
564,966	0,33343
565,164	0,33402
565,361	0,33467
565,558	0,33512
565,756	0,33551
565,953	0,33627
566,15	0,33686
566,347	0,33762
566,545	0,33837
566,742	0,33905
566,939	0,33963
567,136	0,34039
567,334	0,34106
567,531	0,34187
567,728	0,34259
567,925	0,34341
568,122	0,34413
568,319	0,34487
568,517	0,34564
568,714	0,34625
568,911	0,347
569,108	0,34811
569,305	0,34873
569,502	0,34952
569,699	0,35044
569,896	0,35124
570,093	0,35208
570,29	0,35289
570,487	0,3536
570,684	0,35456
570,881	0,35564
571,078	0,35662
571,275	0,35736
571,472	0,35819
571,669	0,35902
571,866	0,3599
572,062	0,36075
572,259	0,36176
572,456	0,36261
572,653	0,36375
572,85	0,36438
573,047	0,36517
573,243	0,36611
573,44	0,36694
573,637	0,36781
573,834	0,36883
574,03	0,36984
574,227	0,37082
574,424	0,37171
574,62	0,37274
574,817	0,37369
575,014	0,37492
575,21	0,3759
575,407	0,37685
575,604	0,37769
575,8	0,37884
575,997	0,37987
576,193	0,38081
576,39	0,38189
576,586	0,38282
576,783	0,38384
576,979	0,38477
577,176	0,38566
577,372	0,38674
577,569	0,38774
577,765	0,38876
577,962	0,38968
578,158	0,39071
578,355	0,39167
578,551	0,39286
578,747	0,39382
578,944	0,3949
579,14	0,39576
579,336	0,3969
579,533	0,39777
579,729	0,39854
579,925	0,39973
580,122	0,40062
580,318	0,40159
580,514	0,40256
580,71	0,40334
580,906	0,40442
581,103	0,40538
581,299	0,40644
581,495	0,40712
581,691	0,40798
581,887	0,40909
582,084	0,40993
582,28	0,41095
582,476	0,41164
582,672	0,41231
582,868	0,4131
583,064	0,4139
583,26	0,41478
583,456	0,4155
583,652	0,41614
583,848	0,41704
584,044	0,41759
584,24	0,4181
584,436	0,41883
584,632	0,41941
584,828	0,42
585,024	0,42062
585,22	0,42115
585,416	0,42145
585,611	0,42199
585,807	0,42267
586,003	0,42318
586,199	0,42364
586,395	0,42435
586,591	0,42438
586,786	0,42491
586,982	0,42541
587,178	0,42573
587,374	0,42599
587,569	0,42621
587,765	0,42642
587,961	0,42666
588,156	0,4268
588,352	0,427
588,548	0,42702
588,743	0,42741
588,939	0,42729
589,135	0,42728
589,33	0,4275
589,526	0,42763
589,721	0,42771
589,917	0,42779
590,112	0,4277
590,308	0,42749
590,503	0,42736
590,699	0,42717
590,894	0,42703
591,09	0,42702
591,285	0,42668
591,481	0,42636
591,676	0,42583
591,872	0,42526
592,067	0,42478
592,262	0,42441
592,458	0,4238
592,653	0,4234
592,848	0,42301
593,044	0,42232
593,239	0,42166
593,434	0,4211
593,629	0,42037
593,825	0,4197
594,02	0,41921
594,215	0,41843
594,41	0,41757
594,606	0,41684
594,801	0,41582
594,996	0,41476
595,191	0,41377
595,386	0,41273
595,581	0,41173
595,777	0,41062
595,972	0,40945
596,167	0,40822
596,362	0,40707
596,557	0,4059
596,752	0,40489
596,947	0,40367
597,142	0,40242
597,337	0,40119
597,532	0,39994
597,727	0,39859
597,922	0,39718
598,117	0,39592
598,312	0,39444
598,507	0,39301
598,701	0,39139
598,896	0,38966
599,091	0,38812
599,286	0,38648
599,481	0,38464
599,676	0,38299
599,87	0,38114
600,065	0,37921
600,26	0,3774
600,455	0,37562
600,65	0,37361
600,844	0,3717
601,039	0,36983
601,234	0,3678
601,428	0,36597
601,623	0,36421
601,818	0,36231
602,012	0,36052
602,207	0,35863
602,402	0,35656
602,596	0,35446
602,791	0,35244
602,985	0,35059
603,18	0,34836
603,374	0,34636
603,569	0,3442
603,763	0,34203
603,958	0,33972
604,152	0,33746
604,347	0,33519
604,541	0,33294
604,736	0,33076
604,93	0,32852
605,125	0,32595
605,319	0,32382
605,513	0,32137
605,708	0,31904
605,902	0,31659
606,096	0,31418
606,291	0,31199
606,485	0,30968
606,679	0,30755
606,874	0,30511
607,068	0,30289
607,262	0,30069
607,456	0,29832
607,65	0,29599
607,845	0,29374
608,039	0,29155
608,233	0,28922
608,427	0,28674
608,621	0,28444
608,815	0,28195
609,01	0,27967
609,204	0,27717
609,398	0,27489
609,592	0,27259
609,786	0,27028
609,98	0,26797
610,174	0,26548
610,368	0,26331
610,562	0,26103
610,756	0,25872
610,95	0,2564
611,144	0,25407
611,338	0,25163
611,532	0,24914
611,726	0,24687
611,919	0,24461
612,113	0,24209
612,307	0,23987
612,501	0,23751
612,695	0,23524
612,889	0,23276
613,082	0,23046
613,276	0,22822
613,47	0,22622
613,664	0,22394
613,857	0,22152
614,051	0,21931
614,245	0,21712
614,439	0,21476
614,632	0,21255
614,826	0,21022
615,02	0,2081
615,213	0,20599
615,407	0,20389
615,6	0,20157
615,794	0,19946
615,988	0,19722
616,181	0,19489
616,375	0,19282
616,568	0,19074
616,762	0,18857
616,955	0,18644
617,149	0,18442
617,342	0,18224
617,536	0,18009
617,729	0,17809
617,923	0,17615
618,116	0,17431
618,309	0,17244
618,503	0,17041
618,696	0,16842
618,889	0,16652
619,083	0,16446
619,276	0,16257
619,469	0,16054
619,663	0,15874
619,856	0,15684
620,049	0,15498
620,242	0,1532
620,436	0,1512
620,629	0,14948
620,822	0,1477
621,015	0,14581
621,209	0,14423
621,402	0,14248
621,595	0,14081
621,788	0,13902
621,981	0,1373
622,174	0,13563
622,367	0,13387
622,56	0,13225
622,753	0,13052
622,946	0,12876
623,139	0,12714
623,332	0,12549
623,525	0,12378
623,718	0,12213
623,911	0,12067
624,104	0,11914
624,297	0,11745
624,49	0,11598
624,683	0,11453
624,876	0,11307
625,069	0,11163
625,262	0,11026
625,454	0,10886
625,647	0,10759
625,84	0,10621
626,033	0,10478
626,226	0,10343
626,418	0,10209
626,611	0,1007
626,804	0,09932
626,997	0,09794
627,189	0,09676
627,382	0,0954
627,575	0,09416
627,767	0,09291
627,96	0,09174
628,153	0,09045
628,345	0,0892
628,538	0,08806
628,731	0,0869
628,923	0,08581
629,116	0,08479
629,308	0,0835
629,501	0,08241
629,693	0,08142
629,886	0,08032
630,078	0,07917
630,271	0,07815
630,463	0,07717
630,656	0,07619
630,848	0,07512
631,04	0,07416
631,233	0,07307
631,425	0,07222
631,617	0,07123
631,81	0,07016
632,002	0,0692
632,194	0,06835
632,387	0,06738
632,579	0,06637
632,771	0,06535
632,964	0,06446
633,156	0,0635
633,348	0,06261
633,54	0,06182
633,732	0,06091
633,925	0,06007
634,117	0,05925
634,309	0,05843
634,501	0,05757
634,693	0,05676
634,885	0,05601
635,077	0,05519
635,269	0,05439
635,462	0,05369
635,654	0,05286
635,846	0,0523
636,038	0,05152
636,23	0,05071
636,422	0,04993
636,614	0,04924
636,806	0,04863
636,997	0,04797
637,189	0,04732
637,381	0,04661
637,573	0,04596
637,765	0,04535
637,957	0,04459
638,149	0,04396
638,341	0,04344
638,532	0,04283
638,724	0,04226
638,916	0,04163
639,108	0,04094
639,299	0,04041
639,491	0,03989
639,683	0,03937
639,875	0,03878
640,066	0,03822
640,258	0,03761
640,45	0,03704
640,641	0,03666
640,833	0,03612
641,025	0,03565
641,216	0,03521
641,408	0,03459
641,599	0,0341
641,791	0,03361
641,982	0,03311
642,174	0,03259
642,366	0,03225
642,557	0,03172
642,748	0,03114
642,94	0,03074
643,131	0,03025
643,323	0,02986
643,514	0,02959
643,706	0,02919
643,897	0,02877
644,088	0,0284
644,28	0,02807
644,471	0,02768
644,662	0,02735
644,854	0,02701
645,045	0,0266
645,236	0,02618
645,428	0,02574
645,619	0,02523
645,81	0,02489
646,001	0,02437
646,193	0,02406
646,384	0,02361
646,575	0,02321
646,766	0,0229
646,957	0,0225
647,148	0,02214
647,339	0,02188
647,531	0,02161
647,722	0,0214
647,913	0,02107
648,104	0,02087
648,295	0,02043
648,486	0,02019
648,677	0,01983
648,868	0,0196
649,059	0,01937
649,25	0,01916
649,441	0,01895
649,632	0,01861
649,823	0,01833
650,013	0,01808
650,204	0,01777
650,395	0,01749
650,586	0,01735
650,777	0,0172
650,968	0,01688
651,159	0,01664
651,349	0,01635
651,54	0,01597
651,731	0,01565
651,922	0,01546
652,112	0,01525
652,303	0,01505
652,494	0,01495
652,684	0,01457
652,875	0,01434
653,066	0,01416
653,256	0,01395
653,447	0,01371
653,638	0,01353
653,828	0,01345
654,019	0,01321
654,209	0,01298
654,4	0,01281
654,59	0,0127
654,781	0,01269
654,972	0,01249
655,162	0,01234
655,352	0,01212
655,543	0,01189
655,733	0,01166
655,924	0,01155
656,114	0,01133
656,305	0,01119
656,495	0,01104
656,685	0,01071
656,876	0,01049
657,066	0,01034
657,256	0,01013
657,447	0,01017
657,637	0,01013
657,827	0,01013
658,017	0,01002
658,208	0,00986
658,398	0,00966
658,588	0,00951
658,778	0,00952
658,968	0,00939
659,159	0,00927
659,349	0,00915
659,539	0,0089
659,729	0,00882
659,919	0,00879
660,109	0,0086
660,299	0,00867
660,489	0,00866
660,679	0,00862
660,869	0,00847
661,059	0,00833
661,249	0,00821
661,439	0,0081
661,629	0,00794
661,819	0,00786
662,009	0,00761
662,199	0,00759
662,389	0,00734
662,579	0,00718
662,769	0,0069
662,959	0,00683
663,149	0,00683
663,338	0,00683
663,528	0,00682
663,718	0,00678
663,908	0,0065
664,097	0,00635
664,287	0,00615
664,477	0,00615
664,667	0,00606
664,856	0,00607
665,046	0,00602
665,236	0,00586
665,425	0,00575
665,615	0,0056
665,805	0,00556
665,994	0,00566
666,184	0,00567
666,373	0,00564
666,563	0,00561
666,753	0,00556
666,942	0,00546
667,132	0,00525
667,321	0,00516
667,511	0,00506
667,7	0,00503
667,889	0,00483
668,079	0,00478
668,268	0,00481
668,458	0,00475
668,647	0,00469
668,836	0,00457
669,026	0,00459
669,215	0,00453
669,404	0,00451
669,594	0,00448
669,783	0,00436
669,972	0,00445
670,162	0,00436
670,351	0,00417
670,54	0,00402
670,729	0,00383
670,919	0,00378
671,108	0,00371
671,297	0,0037
671,486	0,00365
671,675	0,00359
671,864	0,0036
672,053	0,00347
672,243	0,00347
672,432	0,00342
672,621	0,0034
672,81	0,00342
672,999	0,00343
673,188	0,00349
673,377	0,00348
673,566	0,00343
673,755	0,00335
673,944	0,00324
674,133	0,00316
674,322	0,00307
674,51	0,00313
674,699	0,00313
674,888	0,00312
675,077	0,00301
675,266	0,0029
675,455	0,00286
675,644	0,00279
675,832	0,00278
676,021	0,00274
676,21	0,00281
676,399	0,00273
676,587	0,00256
676,776	0,00251
676,965	0,00245
677,153	0,00249
677,342	0,00236
677,531	0,00233
677,719	0,00225
677,908	0,00227
678,097	0,00227
678,285	0,00218
678,474	0,00214
678,662	0,00225
678,851	0,00227
679,039	0,00218
679,228	0,00209
679,416	0,0022
679,605	0,00213
679,793	0,00223
679,982	0,00214
680,17	0,00219
680,359	0,00221
680,547	0,00221
680,736	0,00213
680,924	0,00216
681,112	0,00217
681,301	0,00219
681,489	0,00208
681,677	0,00209
681,866	0,00195
682,054	0,00185
682,242	0,00179
682,43	0,00179
682,619	0,00167
682,807	0,00161
682,995	0,00141
683,183	0,00137
683,371	0,0014
683,559	0,00146
683,748	0,00144
683,936	0,00148
684,124	0,00158
684,312	0,00155
684,5	0,00143
684,688	0,00149
684,876	0,00145
685,064	0,00145
685,252	0,00145
685,44	0,00133
685,628	0,0013
685,816	0,0013
686,004	0,00122
686,192	0,00104
686,38	0,00093
686,568	0,00094
686,756	0,00085
686,944	0,0008
687,131	0,0008
687,319	0,00082
687,507	0,00082
687,695	0,00065
687,883	0,00058
688,07	0,00066
688,258	0,00078
688,446	0,00082
688,634	0,00087
688,821	0,00092
689,009	0,001
689,197	0,0011
689,384	0,00104
689,572	0,00102
689,76	0,00114
689,947	0,00111
690,135	0,00107
690,323	0,00106
690,51	0,001
690,698	0,0009
690,885	0,00094
691,073	0,00086
691,26	0,00081
691,448	0,00081
691,635	0,0009
691,823	0,00081
692,01	0,00082
692,197	0,00072
692,385	0,00068
692,572	0,00072
692,76	0,00073
692,947	0,00075
693,134	0,00085
693,322	0,00078
693,509	0,00073
693,696	0,00055
693,884	0,00056
694,071	0,00059
694,258	0,00063
694,445	0,0006
694,633	0,0006
694,82	0,00052
695,007	0,0005
695,194	0,00046
695,381	0,0005
695,568	0,00054
695,756	0,00064
695,943	0,00064
696,13	0,00056
696,317	0,00048
696,504	0,00052
696,691	0,00041
696,878	0,00046
697,065	0,00029
697,252	0,00036
697,439	0,00029
697,626	0,00028
697,813	0,00027
698	0,00025
698,187	0,00018
698,374	0,00028
698,561	0,00027
698,747	0,00028
698,934	0,00028
699,121	0,00037
699,308	0,00022
699,495	0,0002
699,682	0,00018
699,868	0,00009
700,055	0,00002
700,242	-0,00001
700,429	-0,00013
700,615	-0,0002
700,802	-0,00016
700,989	-0,00024
701,175	-0,00029
701,362	-0,00025
701,549	-0,00021
701,735	-0,00017
701,922	-0,00025
702,108	-0,00017
702,295	-0,00014
702,482	-0,00016
702,668	-0,00012
702,855	-0,00015
703,041	-0,00012
703,228	-0,00008
703,414	-0,00024
703,601	-0,00026
703,787	-0,00032
703,973	-0,00023
704,16	-0,00042
704,346	-0,00035
704,533	-0,00039
704,719	-0,00041
704,905	-0,00046
705,092	-0,00044
705,278	-0,00044
705,464	-0,00035
705,65	-0,00032
705,837	-0,00034
706,023	-0,00035
706,209	-0,00019
706,395	-0,00022
706,582	-0,00016
706,768	-0,00017
706,954	-0,00008
707,14	-0,00014
707,326	-0,00022
707,512	-0,00025
707,698	-0,00026
707,885	-0,00026
708,071	-0,00037
708,257	-0,00043
708,443	-0,00037
708,629	-0,00036
708,815	-0,00037
709,001	-0,00048
709,187	-0,00051
709,373	-0,00042
709,559	-0,00048
709,745	-0,00057
709,93	-0,00069
710,116	-0,00057
710,302	-0,00054
710,488	-0,00056
710,674	-0,00052
710,86	-0,00055
711,046	-0,00045
711,231	-0,00042
711,417	-0,00049
711,603	-0,0005
711,789	-0,00046
711,974	-0,00032
712,16	-0,00043
712,346	-0,00046
712,532	-0,00049
712,717	-0,00055
712,903	-0,00056
713,089	-0,0006
713,274	-0,00063
713,46	-0,00064
713,645	-0,00062
713,831	-0,00055
714,016	-0,00061
714,202	-0,00056
714,388	-0,00038
714,573	-0,00045
714,759	-0,00038
714,944	-0,00048
715,129	-0,00059
715,315	-0,00055
715,5	-0,00063
715,686	-0,0006
715,871	-0,00065
716,057	-0,00061
716,242	-0,00054
716,427	-0,00079
716,613	-0,0008
716,798	-0,00085
716,983	-0,00081
717,168	-0,00066
717,354	-0,00058
717,539	-0,00048
717,724	-0,00049
717,909	-0,00053
718,095	-0,00054
718,28	-0,00067
718,465	-0,00066
718,65	-0,00061
718,835	-0,00071
719,02	-0,00075
719,206	-0,00076
719,391	-0,0008
719,576	-0,00098
719,761	-0,00102
719,946	-0,00107
720,131	-0,00113
720,316	-0,00106
720,501	-0,00102
720,686	-0,00103
720,871	-0,00092
721,056	-0,00088
721,241	-0,00103
721,426	-0,0011
721,61	-0,00097
721,795	-0,00096
721,98	-0,00088
722,165	-0,00084
722,35	-0,00076
722,535	-0,0008
722,719	-0,00082
722,904	-0,00085
723,089	-0,00083
723,274	-0,00074
723,458	-0,00085
723,643	-0,00083
723,828	-0,00081
724,013	-0,00084
724,197	-0,0009
724,382	-0,00103
724,567	-0,00101
724,751	-0,00103
724,936	-0,00105
725,12	-0,00105
725,305	-0,00101
725,489	-0,00092
725,674	-0,00097
725,859	-0,00085
726,043	-0,00088
726,228	-0,00079
726,412	-0,00085
726,596	-0,00086
726,781	-0,00079
726,965	-0,00077
727,15	-0,0007
727,334	-0,00074
727,518	-0,00076
727,703	-0,00075
727,887	-0,00088
728,072	-0,00085
728,256	-0,0009
728,44	-0,00076
728,624	-0,00075
728,809	-0,00084
728,993	-0,00079
729,177	-0,00087
729,361	-0,00086
729,546	-0,0008
729,73	-0,00073
729,914	-0,00085
730,098	-0,00092
730,282	-0,00101
730,466	-0,00115
730,65	-0,00114
730,834	-0,00113
731,019	-0,00124
731,203	-0,00124
731,387	-0,00124
731,571	-0,00135
731,755	-0,00144
731,939	-0,00142
732,123	-0,00141
732,306	-0,00131
732,49	-0,00128
732,674	-0,00133
732,858	-0,00128
733,042	-0,00126
733,226	-0,0012
733,41	-0,00125
733,594	-0,00122
733,778	-0,00124
733,961	-0,00108
734,145	-0,00105
734,329	-0,001
734,513	-0,00086
734,696	-0,00086
734,88	-0,00089
735,064	-0,00095
735,247	-0,00106
735,431	-0,00107
735,615	-0,00109
735,798	-0,00097
735,982	-0,00097
736,166	-0,00091
736,349	-0,00102
736,533	-0,00106
736,716	-0,001
736,9	-0,00102
737,083	-0,00101
737,267	-0,00102
737,45	-0,00101
737,634	-0,00105
737,817	-0,00115
738,001	-0,00112
738,184	-0,00116
738,368	-0,00116
738,551	-0,00133
738,734	-0,00146
738,918	-0,00148
739,101	-0,00132
739,284	-0,00136
739,468	-0,00138
739,651	-0,00123
739,834	-0,0012
740,018	-0,00139
740,201	-0,00142
740,384	-0,00135
740,567	-0,00124
740,75	-0,00111
740,934	-0,00119
741,117	-0,00136
741,3	-0,00119
741,483	-0,00115
741,666	-0,00128
741,849	-0,00129
742,032	-0,00126
742,215	-0,00134
742,399	-0,00129
742,582	-0,00137
742,765	-0,00135
742,948	-0,00123
743,131	-0,00115
743,314	-0,00131
743,496	-0,00139
743,679	-0,00126
743,862	-0,00119
744,045	-0,00113
744,228	-0,00105
744,411	-0,00117
744,594	-0,00123
744,777	-0,00129
744,959	-0,00128
745,142	-0,0012
745,325	-0,00106
745,508	-0,00113
745,691	-0,00122
745,873	-0,00136
746,056	-0,0014
746,239	-0,00145
746,421	-0,00142
746,604	-0,00138
746,787	-0,00134
746,969	-0,00135
747,152	-0,00146
747,335	-0,0016
747,517	-0,00152
747,7	-0,00144
747,882	-0,00145
748,065	-0,00152
748,247	-0,00153
748,43	-0,00157
748,612	-0,00156
748,795	-0,00158
748,977	-0,00168
749,16	-0,00172
749,342	-0,00159
749,524	-0,00167
749,707	-0,0018
749,889	-0,00175
750,072	-0,00175
750,254	-0,00177
750,436	-0,00183
750,619	-0,0018
750,801	-0,00191
750,983	-0,00185
751,165	-0,00188
751,348	-0,00196
751,53	-0,00195
751,712	-0,00185
751,894	-0,00187
752,076	-0,00165
752,259	-0,00168
752,441	-0,00163
752,623	-0,00164
752,805	-0,00162
752,987	-0,00167
753,169	-0,00169
753,351	-0,00178
753,533	-0,00174
753,715	-0,00177
753,897	-0,00179
754,079	-0,00192
754,261	-0,00186
754,443	-0,00196
754,625	-0,00199
754,807	-0,00189
754,989	-0,00181
755,171	-0,0017
755,353	-0,00166
755,534	-0,00174
755,716	-0,00182
755,898	-0,0019
756,08	-0,00186
756,262	-0,00194
756,443	-0,00198
756,625	-0,00199
756,807	-0,00206
756,989	-0,00216
757,17	-0,00221
757,352	-0,00217
757,534	-0,00201
757,715	-0,00195
757,897	-0,00197
758,079	-0,00198
758,26	-0,00193
758,442	-0,00178
758,623	-0,00183
758,805	-0,00174
758,987	-0,00175
759,168	-0,00184
759,35	-0,00194
759,531	-0,00194
759,713	-0,00203
759,894	-0,00201
760,075	-0,0021
760,257	-0,00218
760,438	-0,0022
760,62	-0,00215
760,801	-0,00223
760,982	-0,00224
761,164	-0,00221
761,345	-0,00219
761,526	-0,00221
761,708	-0,00219
761,889	-0,0022
762,07	-0,00215
762,251	-0,002
762,433	-0,00207
762,614	-0,00213
762,795	-0,00208
762,976	-0,00208
763,157	-0,00194
763,338	-0,0019
763,52	-0,00198
763,701	-0,00194
763,882	-0,00197
764,063	-0,00187
764,244	-0,00188
764,425	-0,00185
764,606	-0,00182
764,787	-0,00194
764,968	-0,00186
765,149	-0,00198
765,33	-0,002
765,511	-0,00198
765,692	-0,00204
765,873	-0,00196
766,053	-0,00219
766,234	-0,00221
766,415	-0,0022
766,596	-0,00222
766,777	-0,00226
766,958	-0,00241
767,138	-0,00233
767,319	-0,0024
767,5	-0,00237
767,681	-0,00245
767,861	-0,00245
768,042	-0,00243
768,223	-0,00242
768,403	-0,0025
768,584	-0,00246
768,765	-0,00236
768,945	-0,0024
769,126	-0,00241
769,307	-0,00231
769,487	-0,00231
769,668	-0,00219
769,848	-0,0022
770,029	-0,00205
770,209	-0,00222
770,39	-0,00221
770,57	-0,00218
770,751	-0,00224
770,931	-0,00219
771,111	-0,00231
771,292	-0,00235
771,472	-0,00239
771,653	-0,00237
771,833	-0,00246
772,013	-0,00253
772,194	-0,00238
772,374	-0,00238
772,554	-0,00243
772,734	-0,00231
772,915	-0,00218
773,095	-0,00202
773,275	-0,00201
773,455	-0,00198
773,635	-0,00212
773,816	-0,00201
773,996	-0,00198
774,176	-0,00186
774,356	-0,00177
774,536	-0,00172
774,716	-0,00186
774,896	-0,00196
775,076	-0,00218
775,256	-0,00218
775,436	-0,00218
775,616	-0,00204
775,796	-0,00206
775,976	-0,00203
776,156	-0,00212
776,336	-0,00213
776,516	-0,00222
776,696	-0,00219
776,876	-0,00214
777,056	-0,00206
777,235	-0,00218
777,415	-0,00224
777,595	-0,00237
777,775	-0,00232
777,955	-0,00248
778,134	-0,00255
778,314	-0,00254
778,494	-0,00247
778,674	-0,00234
778,853	-0,00237
779,033	-0,00237
779,213	-0,00214
779,392	-0,00207
779,572	-0,00187
779,751	-0,00203
779,931	-0,0019
780,111	-0,0019
780,29	-0,00206
780,47	-0,00205
780,649	-0,00227
780,829	-0,00224
781,008	-0,00221
781,188	-0,00228
781,367	-0,00222
781,546	-0,00237
781,726	-0,0023
781,905	-0,00239
782,085	-0,00245
782,264	-0,00238
782,443	-0,00238
782,623	-0,00224
782,802	-0,00231
782,981	-0,00227
783,161	-0,0023
783,34	-0,00239
783,519	-0,0023
783,698	-0,00231
783,878	-0,0022
784,057	-0,00218
784,236	-0,00202
784,415	-0,00188
784,594	-0,00187
784,773	-0,00182
784,952	-0,00183
785,132	-0,00183
785,311	-0,00171
785,49	-0,00175
785,669	-0,00169
785,848	-0,00177
786,027	-0,00178
786,206	-0,0019
786,385	-0,00212
786,564	-0,00213
786,743	-0,00215
786,922	-0,00214
787,1	-0,00222
787,279	-0,00239
787,458	-0,00238
787,637	-0,00233
787,816	-0,00226
787,995	-0,00234
788,174	-0,00232
788,352	-0,00231
788,531	-0,00233
788,71	-0,00234
788,889	-0,00243
789,067	-0,00244
789,246	-0,00244
789,425	-0,00241
789,603	-0,00251
789,782	-0,00253
789,961	-0,00236
790,139	-0,00237
790,318	-0,00238
790,496	-0,00237
790,675	-0,00236
790,853	-0,00239
791,032	-0,0024
791,211	-0,00229
791,389	-0,00251
791,568	-0,00242
791,746	-0,00237
791,924	-0,00242
792,103	-0,00236
792,281	-0,00236
792,46	-0,00234
792,638	-0,00238
792,816	-0,00227
792,995	-0,00218
793,173	-0,00234
793,351	-0,00227
793,53	-0,00225
793,708	-0,00237
793,886	-0,00244
794,064	-0,00257
794,243	-0,00246
794,421	-0,00248
794,599	-0,00245
794,777	-0,00258
794,955	-0,0026
795,133	-0,00243
795,312	-0,00253
795,49	-0,00263
795,668	-0,00267
795,846	-0,00261
796,024	-0,00247
796,202	-0,00249
796,38	-0,00258
796,558	-0,00273
796,736	-0,00274
796,914	-0,00284
797,092	-0,00307
797,27	-0,00291
797,448	-0,00295
797,626	-0,00299
797,803	-0,00304
797,981	-0,00314
798,159	-0,00319
798,337	-0,00317
798,515	-0,003
798,693	-0,00284
798,87	-0,00293
799,048	-0,0028
799,226	-0,0028
799,404	-0,00273
799,581	-0,00265
799,759	-0,0027
799,937	-0,00271
800,114	-0,00281
800,292	-0,00275
800,469	-0,00269
800,647	-0,00281
800,825	-0,00267
801,002	-0,00276
801,18	-0,0029
801,357	-0,00292
801,535	-0,00288
801,712	-0,00283
801,89	-0,00273
802,067	-0,00267
802,245	-0,00276
802,422	-0,00295
802,6	-0,00287
802,777	-0,00289
802,954	-0,00282
803,132	-0,0027
803,309	-0,00272
803,486	-0,00275
803,664	-0,00278
803,841	-0,00278
804,018	-0,00279
804,195	-0,00277
804,373	-0,00275
804,55	-0,00274
804,727	-0,00272
804,904	-0,00274
805,081	-0,00276
805,259	-0,00284
805,436	-0,00303
805,613	-0,003
805,79	-0,00308
805,967	-0,00306
806,144	-0,00303
806,321	-0,00301
806,498	-0,00306
806,675	-0,00296
806,852	-0,00292
807,029	-0,00298
807,206	-0,00296
807,383	-0,00272
807,56	-0,00267
807,737	-0,00264
807,914	-0,00269
808,091	-0,00268
808,268	-0,00261
808,444	-0,00252
808,621	-0,00261
808,798	-0,0027
808,975	-0,00264
809,152	-0,00268
809,328	-0,00276
809,505	-0,00276
809,682	-0,00278
809,858	-0,0028
810,035	-0,00288
810,212	-0,00312
810,388	-0,00312
810,565	-0,00291
810,742	-0,00295
810,918	-0,00297
811,095	-0,00292
811,271	-0,00282
811,448	-0,00292
811,625	-0,00298
811,801	-0,00292
811,978	-0,00275
812,154	-0,00264
812,33	-0,00277
812,507	-0,00288
812,683	-0,00278
812,86	-0,0027
813,036	-0,00263
813,212	-0,00276
813,389	-0,00277
813,565	-0,00275
813,741	-0,00255
813,918	-0,00262
814,094	-0,00243
814,27	-0,00244
814,447	-0,00242
814,623	-0,00243
814,799	-0,00239
814,975	-0,00248
815,151	-0,00246
815,328	-0,00248
815,504	-0,00254
815,68	-0,00278
815,856	-0,00272
816,032	-0,00277
816,208	-0,00277
816,384	-0,00307
816,56	-0,00302
816,736	-0,00324
816,912	-0,00316
817,088	-0,00322
817,264	-0,0031
817,44	-0,00309
817,616	-0,00314
817,792	-0,00337
817,968	-0,00346
818,144	-0,00334
818,32	-0,00314
818,495	-0,00325
818,671	-0,00314
818,847	-0,00319
819,023	-0,00309
819,199	-0,003
819,374	-0,00284
819,55	-0,0029
819,726	-0,00278
819,902	-0,00273
820,077	-0,00284
820,253	-0,00287
820,429	-0,00269
820,604	-0,00252
820,78	-0,00241
820,956	-0,00237
821,131	-0,00259
821,307	-0,00272
821,482	-0,00258
821,658	-0,00253
821,833	-0,00267
822,009	-0,00267
822,184	-0,00271
822,36	-0,00276
822,535	-0,00294
822,711	-0,00302
822,886	-0,00316
823,061	-0,00315
823,237	-0,00306
823,412	-0,00307
823,587	-0,00322
823,763	-0,0031
823,938	-0,00297
824,113	-0,00302
824,289	-0,00314
824,464	-0,00301
824,639	-0,00295
824,814	-0,003
824,99	-0,00297
825,165	-0,00299
825,34	-0,00289
825,515	-0,00277
825,69	-0,00279
825,865	-0,00285
826,04	-0,00275
826,215	-0,00249
826,39	-0,0023
826,566	-0,00232
826,741	-0,00221
826,916	-0,00196
827,091	-0,00189
827,265	-0,00186
827,44	-0,00171
827,615	-0,0016
827,79	-0,00174
827,965	-0,00168
828,14	-0,0018
828,315	-0,00202
828,49	-0,00207
828,665	-0,00205
828,839	-0,00224
829,014	-0,00228
829,189	-0,00245
829,364	-0,00257
829,538	-0,00265
829,713	-0,00249
829,888	-0,00252
830,063	-0,00258
830,237	-0,00266
830,412	-0,00264
830,587	-0,00272
830,761	-0,00253
830,936	-0,00263
831,11	-0,00259
831,285	-0,00265
831,459	-0,00248
831,634	-0,00257
831,809	-0,00259
831,983	-0,00279
832,157	-0,0027
832,332	-0,00281
832,506	-0,0028
832,681	-0,00306
832,855	-0,00316
833,03	-0,00329
833,204	-0,0033
833,378	-0,00356
833,553	-0,00359
833,727	-0,0035
833,901	-0,00326
834,076	-0,00327
834,25	-0,0033
834,424	-0,00333
834,598	-0,00325
834,773	-0,00322
834,947	-0,00302
835,121	-0,00296
835,295	-0,00296
835,469	-0,00291
835,643	-0,00311
835,817	-0,00313
835,991	-0,00331
836,166	-0,00334
836,34	-0,00298
836,514	-0,00311
836,688	-0,00289
836,862	-0,00301
837,036	-0,00313
837,21	-0,00312
837,384	-0,0032
837,557	-0,00318
837,731	-0,00328
837,905	-0,00308
838,079	-0,00308
838,253	-0,00339
838,427	-0,00333
838,601	-0,0036
838,774	-0,0036
838,948	-0,00355
839,122	-0,00342
839,296	-0,0032
839,469	-0,00299
839,643	-0,00292
839,817	-0,00315
839,991	-0,00308
840,164	-0,00298
840,338	-0,00313
840,512	-0,00301
840,685	-0,00288
840,859	-0,00293
841,032	-0,00301
841,206	-0,00311
841,379	-0,0033
841,553	-0,00337
841,726	-0,00313
841,9	-0,00298
842,073	-0,00292
842,247	-0,00278
842,42	-0,00291
842,594	-0,00288
842,767	-0,00286
842,94	-0,0028
843,114	-0,00261
843,287	-0,00259
843,46	-0,00263
843,634	-0,00269
843,807	-0,00275
843,98	-0,00285
844,154	-0,00281
844,327	-0,00269
844,5	-0,00272
844,673	-0,0026
844,846	-0,00267
845,02	-0,00286
845,193	-0,00296
845,366	-0,00296
845,539	-0,00306
845,712	-0,00302
845,885	-0,00327
846,058	-0,00318
846,231	-0,00322
846,404	-0,00339
846,577	-0,00351
846,75	-0,00333
846,923	-0,00318
847,096	-0,00315
847,269	-0,003
847,442	-0,0029
847,615	-0,00289
847,788	-0,00265
847,961	-0,00276
848,133	-0,00248
848,306	-0,00243
848,479	-0,00245
848,652	-0,00254
848,825	-0,0028
848,997	-0,00277
849,17	-0,00273
849,343	-0,0028
849,515	-0,00288
849,688	-0,00293
849,861	-0,00279
850,033	-0,00304
850,206	-0,003
850,379	-0,00308
850,551	-0,00322
850,724	-0,00303
850,896	-0,0031
851,069	-0,00332
851,241	-0,00337
851,414	-0,00332
851,586	-0,00338
851,759	-0,0034
851,931	-0,00348
852,104	-0,00344
852,276	-0,00341
852,449	-0,00332
852,621	-0,00339
852,793	-0,00329
852,966	-0,00316
853,138	-0,003
853,31	-0,0032
853,483	-0,00304
853,655	-0,00332
853,827	-0,00336
853,999	-0,0034
854,172	-0,00325
854,344	-0,00321
854,516	-0,00306
854,688	-0,00302
854,86	-0,00311
855,032	-0,0033
855,204	-0,00303
855,377	-0,00299
855,549	-0,00273
855,721	-0,00274
855,893	-0,00269
856,065	-0,00277
856,237	-0,00286
856,409	-0,00308
856,581	-0,00315
856,753	-0,00286
856,924	-0,00278
857,096	-0,00284
857,268	-0,00282
857,44	-0,00288
857,612	-0,00271
857,784	-0,00285
857,956	-0,00263
858,127	-0,00248
858,299	-0,00259
858,471	-0,00276
858,643	-0,00303
858,814	-0,00299
858,986	-0,00307
859,158	-0,00317
859,33	-0,00319
859,501	-0,00333
859,673	-0,00339
859,844	-0,00353
860,016	-0,00367
860,188	-0,00351
860,359	-0,00339
860,531	-0,00335
860,702	-0,00333
860,874	-0,00352
861,045	-0,0037
861,217	-0,0037
861,388	-0,00377
861,56	-0,00365
861,731	-0,00371
861,902	-0,00374
862,074	-0,00364
862,245	-0,0035
862,417	-0,00341
862,588	-0,00348
862,759	-0,00337
862,931	-0,0032
863,102	-0,00315
863,273	-0,00307
863,444	-0,00321
863,616	-0,003
863,787	-0,00302
863,958	-0,00317
864,129	-0,0032
864,3	-0,00333
864,471	-0,00335
864,642	-0,00322
864,814	-0,00345
864,985	-0,0037
865,156	-0,00373
865,327	-0,00365
865,498	-0,00381
865,669	-0,00408
865,84	-0,00404
866,011	-0,00404
866,182	-0,00405
866,353	-0,00409
866,523	-0,00434
866,694	-0,00402
866,865	-0,00375
867,036	-0,00384
867,207	-0,004
867,378	-0,00432
867,549	-0,00415
867,719	-0,00431
867,89	-0,00448
868,061	-0,00464
868,232	-0,00461
868,402	-0,00443
868,573	-0,00477
868,744	-0,00464
868,914	-0,00444
869,085	-0,0045
869,256	-0,00423
869,426	-0,00427
869,597	-0,00429
869,767	-0,00422
869,938	-0,00407
870,108	-0,00383
870,279	-0,00384
870,449	-0,00392
870,62	-0,00418
870,79	-0,00435
870,961	-0,00392
871,131	-0,00399
871,302	-0,00359
871,472	-0,00346
871,642	-0,0034
871,813	-0,00324
871,983	-0,00352
872,153	-0,00364
872,324	-0,00331
872,494	-0,00336
872,664	-0,00323
872,835	-0,00322
873,005	-0,00291
873,175	-0,00312
873,345	-0,00304
873,515	-0,00327
873,685	-0,00354
873,856	-0,00321
874,026	-0,00324
874,196	-0,00318
874,366	-0,00321
874,536	-0,00337
874,706	-0,00352
874,876	-0,00384
875,046	-0,00415
875,216	-0,00422
875,386	-0,00388
875,556	-0,00355
875,726	-0,0041
875,896	-0,00402
876,066	-0,00403
876,236	-0,00402
876,405	-0,00412
876,575	-0,00435
876,745	-0,00449
876,915	-0,00385
877,085	-0,00376
877,254	-0,00394
877,424	-0,00403
877,594	-0,00381
877,764	-0,00393
877,933	-0,00398
878,103	-0,00387
878,273	-0,00331
878,442	-0,00332
878,612	-0,00317
878,781	-0,00336
878,951	-0,00334
879,121	-0,00345
879,29	-0,00372
879,46	-0,00363
879,629	-0,00314
879,799	-0,00318
879,968	-0,00331
880,138	-0,00347
880,307	-0,00336
880,476	-0,00347
880,646	-0,00393
880,815	-0,00409
880,985	-0,00412
881,154	-0,00408
881,323	-0,00424
881,493	-0,00465
881,662	-0,00476
881,831	-0,00468
882	-0,00484
882,17	-0,00477
882,339	-0,00475
882,508	-0,00453
882,677	-0,00415
882,846	-0,00378
883,016	-0,00377
883,185	-0,00358
883,354	-0,00358
883,523	-0,00381
883,692	-0,00373
883,861	-0,0039
884,03	-0,00439
884,199	-0,00424
884,368	-0,00389
884,537	-0,00427
884,706	-0,00452
884,875	-0,00452
885,044	-0,00443
885,213	-0,0042
885,382	-0,00397
885,55	-0,00426
885,719	-0,00404
885,888	-0,00366
886,057	-0,00374
886,226	-0,00407
886,395	-0,00386
886,563	-0,00396
886,732	-0,00374
886,901	-0,00395
887,069	-0,0039
887,238	-0,00392
887,407	-0,00368
887,575	-0,00356
887,744	-0,00339
887,913	-0,00376
888,081	-0,00386
888,25	-0,00384
888,418	-0,00373
888,587	-0,00401
888,755	-0,00419
888,924	-0,00448
889,092	-0,00429
889,261	-0,00451
889,429	-0,00492
889,598	-0,00485
889,766	-0,00458
889,935	-0,00434
890,103	-0,00473
890,271	-0,00488
890,44	-0,00492
890,608	-0,00514
890,776	-0,00511
890,944	-0,00521
891,113	-0,00523
891,281	-0,00512
891,449	-0,00533
891,617	-0,00537
891,786	-0,00539
891,954	-0,00529
892,122	-0,00476
892,29	-0,0044
892,458	-0,00429
892,626	-0,00417
892,794	-0,00414
892,962	-0,00387
893,13	-0,00375
893,298	-0,00359
893,466	-0,00322
