Data from Chemiepractica_Absorbance__22__11-42-33-062.txt Node

Date: Mon Dec 09 11:42:33 CET 2024
User: r0948668
Spectrometer: USB4F07138
Trigger mode: 4
Integration Time (sec): 6,000000E-3
Scans to average: 20
Electric dark correction enabled: true
Nonlinearity correction enabled: false
Boxcar width: 5
XAxis mode: Wavelengths
Number of Pixels in Spectrum: 3648
>>>>>Begin Spectral Data<<<<<
176,779	-0
176,999	-0
177,218	-0
177,438	-1,28832
177,658	-0,52409
177,878	-0,1849
178,097	0,1762
178,317	0,12092
178,537	0,13697
178,757	0,45587
178,976	0,13508
179,196	-0,03743
179,416	1,27513
179,635	0,14897
179,855	0,07915
180,075	0,03153
180,294	-0,02842
180,514	-0,07915
180,734	-0,00427
180,953	0,04513
181,173	0,02788
181,392	0,03606
181,612	0,03528
181,832	0,04983
182,051	0,04722
182,271	0,03183
182,49	0,03399
182,71	0,05275
182,929	0,07874
183,149	0,07187
183,368	0,07145
183,588	0,06752
183,807	0,0769
184,027	0,09412
184,246	0,09114
184,466	0,09306
184,685	0,10881
184,905	0,09437
185,124	0,09295
185,344	0,08908
185,563	0,08235
185,782	0,07871
186,002	0,07505
186,221	0,06503
186,44	0,05519
186,66	0,04118
186,879	0,03373
187,099	0,02776
187,318	0,03196
187,537	0,0245
187,756	0,02917
187,976	0,02299
188,195	0,01292
188,414	0,02368
188,634	0,03728
188,853	0,03858
189,072	0,045
189,291	0,04622
189,511	0,05354
189,73	0,06612
189,949	0,06781
190,168	0,06542
190,387	0,07865
190,607	0,08868
190,826	0,09115
191,045	0,08941
191,264	0,08789
191,483	0,08618
191,702	0,08638
191,921	0,08092
192,141	0,07613
192,36	0,07267
192,579	0,06966
192,798	0,07444
193,017	0,06292
193,236	0,07405
193,455	0,06238
193,674	0,05969
193,893	0,05932
194,112	0,06855
194,331	0,06736
194,55	0,06819
194,769	0,06897
194,988	0,06649
195,207	0,059
195,426	0,06408
195,645	0,04648
195,864	0,04505
196,083	0,04551
196,302	0,03759
196,521	0,04237
196,739	0,044
196,958	0,03523
197,177	0,03648
197,396	0,03806
197,615	0,03542
197,834	0,02095
198,053	0,02703
198,271	0,01971
198,49	0,02847
198,709	0,04397
198,928	0,0382
199,147	0,03198
199,365	0,06132
199,584	0,05617
199,803	0,0551
200,022	0,05521
200,24	0,04811
200,459	0,04871
200,678	0,0634
200,897	0,04102
201,115	0,03664
201,334	0,0506
201,553	0,04895
201,771	0,02006
201,99	0,01338
202,209	0,0297
202,427	0,03581
202,646	0,0559
202,864	0,04749
203,083	0,04726
203,302	0,0725
203,52	0,08052
203,739	0,0578
203,957	0,0604
204,176	0,07378
204,394	0,08016
204,613	0,07526
204,831	0,07348
205,05	0,08073
205,268	0,09022
205,487	0,07457
205,705	0,06493
205,924	0,06552
206,142	0,07792
206,361	0,07302
206,579	0,06791
206,798	0,07145
207,016	0,06824
207,234	0,06559
207,453	0,06673
207,671	0,07282
207,89	0,08787
208,108	0,08622
208,326	0,06569
208,545	0,05558
208,763	0,06345
208,981	0,05641
209,2	0,04887
209,418	0,0421
209,636	0,03625
209,855	0,03148
210,073	0,01645
210,291	0,00689
210,509	0,01279
210,728	0,01865
210,946	0,02297
211,164	0,03008
211,382	0,04192
211,6	0,06078
211,819	0,06529
212,037	0,05765
212,255	0,0515
212,473	0,06315
212,691	0,07017
212,909	0,0706
213,128	0,06849
213,346	0,06085
213,564	0,05892
213,782	0,04465
214	0,04343
214,218	0,04623
214,436	0,05488
214,654	0,04931
214,872	0,04333
215,09	0,03576
215,308	0,03872
215,526	0,04731
215,744	0,0507
215,962	0,04129
216,18	0,05165
216,398	0,05863
216,616	0,04869
216,834	0,0462
217,052	0,0548
217,27	0,04311
217,488	0,05705
217,706	0,06202
217,924	0,05873
218,142	0,05531
218,36	0,06868
218,578	0,07282
218,795	0,03983
219,013	0,0415
219,231	0,04715
219,449	0,03782
219,667	0,04928
219,885	0,03957
220,102	0,04221
220,32	0,04573
220,538	0,05267
220,756	0,04033
220,973	0,04141
221,191	0,0439
221,409	0,04672
221,627	0,04805
221,844	0,05434
222,062	0,04744
222,28	0,06209
222,497	0,0527
222,715	0,05315
222,933	0,04474
223,15	0,0412
223,368	0,04512
223,586	0,07586
223,803	0,08262
224,021	0,07454
224,239	0,07245
224,456	0,08024
224,674	0,06541
224,891	0,07448
225,109	0,07074
225,326	0,0695
225,544	0,07315
225,762	0,0506
225,979	0,03804
226,197	0,04207
226,414	0,04997
226,632	0,04631
226,849	0,04623
227,066	0,056
227,284	0,0364
227,501	0,03992
227,719	0,05506
227,936	0,0699
228,154	0,09833
228,371	0,10324
228,588	0,09928
228,806	0,10065
229,023	0,10152
229,241	0,11294
229,458	0,11125
229,675	0,1206
229,893	0,10486
230,11	0,09294
230,327	0,08118
230,545	0,06411
230,762	0,05235
230,979	0,06495
231,196	0,05294
231,414	0,04958
231,631	0,03127
231,848	0,01915
232,065	0,02159
232,283	0,02945
232,5	0,03266
232,717	0,02473
232,934	0,01882
233,151	0,03014
233,368	0,01122
233,586	0,00791
233,803	0,01185
234,02	0,02281
234,237	0,03171
234,454	0,03325
234,671	0,0496
234,888	0,03954
235,105	0,05207
235,322	0,07062
235,54	0,05604
235,757	0,06566
235,974	0,07675
236,191	0,08535
236,408	0,07738
236,625	0,09012
236,842	0,07614
237,059	0,07084
237,276	0,07242
237,493	0,07099
237,71	0,06816
237,926	0,06812
238,143	0,05786
238,36	0,05351
238,577	0,04729
238,794	0,04736
239,011	0,0308
239,228	0,03398
239,445	0,02882
239,662	0,04957
239,878	0,05707
240,095	0,06479
240,312	0,07915
240,529	0,08403
240,746	0,09524
240,963	0,09757
241,179	0,10162
241,396	0,11519
241,613	0,11108
241,83	0,1046
242,046	0,09683
242,263	0,09006
242,48	0,09073
242,697	0,08523
242,913	0,09227
243,13	0,07839
243,347	0,08258
243,563	0,07861
243,78	0,07639
243,997	0,07901
244,213	0,07808
244,43	0,08262
244,646	0,08138
244,863	0,07614
245,08	0,08164
245,296	0,07457
245,513	0,07466
245,729	0,06817
245,946	0,0824
246,162	0,07718
246,379	0,0869
246,595	0,08477
246,812	0,08074
247,028	0,08148
247,245	0,06439
247,461	0,05089
247,678	0,04015
247,894	0,04789
248,111	0,05025
248,327	0,03814
248,544	0,0348
248,76	0,03733
248,976	0,0603
249,193	0,04857
249,409	0,04553
249,626	0,05412
249,842	0,05995
250,058	0,07945
250,275	0,07901
250,491	0,07423
250,707	0,07203
250,924	0,08312
251,14	0,0834
251,356	0,07863
251,572	0,08739
251,789	0,0836
252,005	0,083
252,221	0,09954
252,437	0,08965
252,654	0,09746
252,87	0,09263
253,086	0,10883
253,302	0,10743
253,518	0,10437
253,735	0,09816
253,951	0,1058
254,167	0,11432
254,383	0,10319
254,599	0,08894
254,815	0,0867
255,031	0,06492
255,247	0,06673
255,463	0,05431
255,68	0,053
255,896	0,06623
256,112	0,05345
256,328	0,04182
256,544	0,04132
256,76	0,05115
256,976	0,04521
257,192	0,04746
257,408	0,05942
257,624	0,05303
257,84	0,05608
258,056	0,05145
258,272	0,04426
258,487	0,0375
258,703	0,04533
258,919	0,04779
259,135	0,04157
259,351	0,04538
259,567	0,05255
259,783	0,0512
259,999	0,06936
260,215	0,0719
260,43	0,06597
260,646	0,06697
260,862	0,08516
261,078	0,07209
261,294	0,06583
261,509	0,07175
261,725	0,08027
261,941	0,0729
262,157	0,07302
262,372	0,06936
262,588	0,06402
262,804	0,07987
263,019	0,07162
263,235	0,0646
263,451	0,07638
263,667	0,0958
263,882	0,1059
264,098	0,10201
264,313	0,10357
264,529	0,10031
264,745	0,10683
264,96	0,09867
265,176	0,09864
265,391	0,09858
265,607	0,10573
265,823	0,10216
266,038	0,08322
266,254	0,08838
266,469	0,09369
266,685	0,08488
266,9	0,09077
267,116	0,07802
267,331	0,09744
267,547	0,08456
267,762	0,08743
267,978	0,08466
268,193	0,09269
268,408	0,08974
268,624	0,09078
268,839	0,09007
269,055	0,0888
269,27	0,08124
269,485	0,08465
269,701	0,0657
269,916	0,06867
270,132	0,06837
270,347	0,07487
270,562	0,07055
270,777	0,07531
270,993	0,0716
271,208	0,06634
271,423	0,07965
271,639	0,09392
271,854	0,08858
272,069	0,09718
272,284	0,09825
272,5	0,09478
272,715	0,08898
272,93	0,08037
273,145	0,06684
273,36	0,07209
273,576	0,0794
273,791	0,07121
274,006	0,05984
274,221	0,05946
274,436	0,05765
274,651	0,05644
274,866	0,06287
275,081	0,07054
275,296	0,06707
275,512	0,08016
275,727	0,06962
275,942	0,06453
276,157	0,06165
276,372	0,0686
276,587	0,07408
276,802	0,07843
277,017	0,07988
277,232	0,07581
277,447	0,07284
277,662	0,07356
277,877	0,06926
278,092	0,06754
278,306	0,07427
278,521	0,07886
278,736	0,07341
278,951	0,06503
279,166	0,06156
279,381	0,05238
279,596	0,05258
279,811	0,0415
280,025	0,04306
280,24	0,04111
280,455	0,04376
280,67	0,03773
280,885	0,03701
281,099	0,03608
281,314	0,03772
281,529	0,03309
281,744	0,04994
281,959	0,04963
282,173	0,05996
282,388	0,07538
282,603	0,0755
282,817	0,07289
283,032	0,07575
283,247	0,07326
283,461	0,07737
283,676	0,07608
283,891	0,08469
284,105	0,07483
284,32	0,07406
284,535	0,06551
284,749	0,06046
284,964	0,06296
285,178	0,06726
285,393	0,06947
285,607	0,06541
285,822	0,06796
286,036	0,08134
286,251	0,07788
286,465	0,08216
286,68	0,08697
286,894	0,09486
287,109	0,09378
287,323	0,08034
287,538	0,08379
287,752	0,07967
287,967	0,08216
288,181	0,07098
288,396	0,07491
288,61	0,07787
288,824	0,07459
289,039	0,07255
289,253	0,07881
289,467	0,07162
289,682	0,08095
289,896	0,08327
290,11	0,0837
290,325	0,09145
290,539	0,08677
290,753	0,07499
290,968	0,06782
291,182	0,05876
291,396	0,06195
291,61	0,04925
291,825	0,05305
292,039	0,0547
292,253	0,05359
292,467	0,05218
292,681	0,04694
292,896	0,05349
293,11	0,04367
293,324	0,05072
293,538	0,05687
293,752	0,05595
293,966	0,05557
294,18	0,05645
294,394	0,05634
294,608	0,05758
294,823	0,05734
295,037	0,06295
295,251	0,06586
295,465	0,07463
295,679	0,07149
295,893	0,06995
296,107	0,05999
296,321	0,07319
296,535	0,07319
296,749	0,0765
296,963	0,05713
297,177	0,05655
297,391	0,04947
297,604	0,0392
297,818	0,03424
298,032	0,02729
298,246	0,02154
298,46	0,0335
298,674	0,0276
298,888	0,02439
299,102	0,03337
299,315	0,04918
299,529	0,04949
299,743	0,05707
299,957	0,06555
300,171	0,07025
300,385	0,07331
300,598	0,08476
300,812	0,08594
301,026	0,08477
301,24	0,08994
301,453	0,08291
301,667	0,08108
301,881	0,0785
302,094	0,06998
302,308	0,06792
302,522	0,07993
302,735	0,08056
302,949	0,08416
303,163	0,07834
303,376	0,07609
303,59	0,07708
303,803	0,06655
304,017	0,05939
304,231	0,06113
304,444	0,07437
304,658	0,07472
304,871	0,06973
305,085	0,07294
305,298	0,05688
305,512	0,05463
305,725	0,05323
305,939	0,05422
306,152	0,05436
306,366	0,04701
306,579	0,05797
306,793	0,05556
307,006	0,05448
307,22	0,05563
307,433	0,05213
307,646	0,05612
307,86	0,04842
308,073	0,05583
308,286	0,05089
308,5	0,05549
308,713	0,05718
308,926	0,05183
309,14	0,04863
309,353	0,04758
309,566	0,03762
309,78	0,03945
309,993	0,03852
310,206	0,04681
310,419	0,04259
310,633	0,03707
310,846	0,04508
311,059	0,05082
311,272	0,04536
311,486	0,03859
311,699	0,03511
311,912	0,03555
312,125	0,03837
312,338	0,04262
312,551	0,04847
312,764	0,04681
312,978	0,06336
313,191	0,0542
313,404	0,04292
313,617	0,03664
313,83	0,04552
314,043	0,05054
314,256	0,04556
314,469	0,03834
314,682	0,0357
314,895	0,0314
315,108	0,03478
315,321	0,01769
315,534	0,02758
315,747	0,04365
315,96	0,05553
316,173	0,04938
316,386	0,05204
316,599	0,05953
316,812	0,06956
317,025	0,07581
317,237	0,07772
317,45	0,07356
317,663	0,08891
317,876	0,08897
318,089	0,08582
318,302	0,07797
318,515	0,07764
318,727	0,06949
318,94	0,07002
319,153	0,06079
319,366	0,06061
319,578	0,04964
319,791	0,05535
320,004	0,03126
320,217	0,02758
320,429	0,03157
320,642	0,03112
320,855	0,0306
321,067	0,03325
321,28	0,02998
321,493	0,03463
321,705	0,02873
321,918	0,03513
322,131	0,02942
322,343	0,04029
322,556	0,04218
322,768	0,04067
322,981	0,04062
323,194	0,04038
323,406	0,04521
323,619	0,04751
323,831	0,05645
324,044	0,05731
324,256	0,06147
324,469	0,0579
324,681	0,0606
324,894	0,05267
325,106	0,05474
325,319	0,05325
325,531	0,05516
325,743	0,05144
325,956	0,05109
326,168	0,04116
326,381	0,04342
326,593	0,02544
326,805	0,03031
327,018	0,03359
327,23	0,02972
327,442	0,02757
327,655	0,02133
327,867	0,02102
328,079	0,01261
328,292	0,01795
328,504	0,02441
328,716	0,02527
328,928	0,04483
329,141	0,03963
329,353	0,0373
329,565	0,04783
329,777	0,04321
329,99	0,05853
330,202	0,06286
330,414	0,06463
330,626	0,0549
330,838	0,05109
331,05	0,04915
331,263	0,04258
331,475	0,05314
331,687	0,05071
331,899	0,04913
332,111	0,05143
332,323	0,04785
332,535	0,03948
332,747	0,05502
332,959	0,05877
333,171	0,05116
333,383	0,05384
333,595	0,05232
333,807	0,0484
334,019	0,04656
334,231	0,039
334,443	0,03601
334,655	0,03371
334,867	0,03982
335,079	0,03685
335,291	0,03022
335,503	0,0405
335,714	0,0382
335,926	0,04489
336,138	0,03728
336,35	0,03683
336,562	0,04921
336,774	0,05799
336,986	0,05492
337,197	0,05665
337,409	0,05937
337,621	0,06185
337,833	0,05738
338,044	0,05889
338,256	0,04771
338,468	0,05159
338,68	0,04915
338,891	0,04116
339,103	0,0271
339,315	0,02311
339,526	0,01772
339,738	0,00922
339,95	0,00658
340,161	0,01532
340,373	0,00506
340,585	0,00558
340,796	0,00685
341,008	0,01194
341,219	0,01107
341,431	0,01466
341,642	0,0232
341,854	0,02562
342,065	0,0332
342,277	0,03137
342,489	0,02592
342,7	0,03806
342,912	0,04355
343,123	0,04544
343,334	0,04642
343,546	0,04217
343,757	0,04767
343,969	0,04421
344,18	0,041
344,392	0,0395
344,603	0,04993
344,814	0,05627
345,026	0,05685
345,237	0,0512
345,448	0,05049
345,66	0,05234
345,871	0,05808
346,082	0,06137
346,294	0,06535
346,505	0,07119
346,716	0,07121
346,927	0,06817
347,139	0,0602
347,35	0,05593
347,561	0,05361
347,772	0,05216
347,984	0,05767
348,195	0,05968
348,406	0,04969
348,617	0,05232
348,828	0,0508
349,039	0,04837
349,251	0,04704
349,462	0,04888
349,673	0,04182
349,884	0,04426
350,095	0,03934
350,306	0,03031
350,517	0,03384
350,728	0,03853
350,939	0,03794
351,15	0,03486
351,361	0,03164
351,572	0,04369
351,783	0,04358
351,994	0,05069
352,205	0,05532
352,416	0,05796
352,627	0,05957
352,838	0,05639
353,049	0,05938
353,26	0,06019
353,471	0,05614
353,682	0,05882
353,893	0,05278
354,103	0,04706
354,314	0,04672
354,525	0,04733
354,736	0,05037
354,947	0,05322
355,157	0,04795
355,368	0,04426
355,579	0,03246
355,79	0,03896
356,001	0,03375
356,211	0,03256
356,422	0,02992
356,633	0,02996
356,843	0,02874
357,054	0,02768
357,265	0,02852
357,476	0,03356
357,686	0,0346
357,897	0,04466
358,107	0,04337
358,318	0,05105
358,529	0,04908
358,739	0,06166
358,95	0,06669
359,16	0,07199
359,371	0,06663
359,582	0,05989
359,792	0,0645
360,003	0,05674
360,213	0,04924
360,424	0,05071
360,634	0,05125
360,845	0,04977
361,055	0,0456
361,266	0,04356
361,476	0,04713
361,686	0,04762
361,897	0,05146
362,107	0,0486
362,318	0,05702
362,528	0,05932
362,738	0,05308
362,949	0,05026
363,159	0,05209
363,369	0,04981
363,58	0,04349
363,79	0,03457
364	0,03929
364,211	0,03553
364,421	0,03521
364,631	0,03507
364,842	0,03717
365,052	0,03976
365,262	0,03974
365,472	0,04286
365,682	0,0411
365,893	0,0422
366,103	0,0521
366,313	0,05257
366,523	0,05599
366,733	0,05555
366,943	0,05817
367,154	0,05885
367,364	0,06392
367,574	0,06372
367,784	0,06924
367,994	0,07099
368,204	0,07641
368,414	0,07224
368,624	0,07233
368,834	0,0712
369,044	0,06816
369,254	0,06512
369,464	0,06415
369,674	0,05927
369,884	0,05329
370,094	0,04831
370,304	0,04162
370,514	0,03991
370,724	0,03589
370,934	0,0328
371,144	0,02948
371,353	0,03362
371,563	0,03288
371,773	0,0323
371,983	0,03161
372,193	0,03391
372,403	0,03407
372,612	0,03843
372,822	0,0393
373,032	0,03674
373,242	0,04016
373,452	0,0438
373,661	0,04261
373,871	0,04445
374,081	0,04631
374,29	0,05106
374,5	0,05196
374,71	0,04504
374,92	0,04239
375,129	0,04003
375,339	0,04153
375,549	0,03739
375,758	0,03706
375,968	0,03249
376,177	0,0264
376,387	0,01959
376,597	0,01615
376,806	0,02028
377,016	0,02377
377,225	0,02667
377,435	0,02398
377,644	0,02423
377,854	0,02624
378,063	0,02834
378,273	0,03
378,482	0,03596
378,692	0,04188
378,901	0,04453
379,111	0,04609
379,32	0,04683
379,529	0,04596
379,739	0,05323
379,948	0,05532
380,158	0,05488
380,367	0,05739
380,576	0,05866
380,786	0,05419
380,995	0,05638
381,204	0,05691
381,414	0,05566
381,623	0,05203
381,832	0,05441
382,041	0,0493
382,251	0,05058
382,46	0,05206
382,669	0,04581
382,878	0,04811
383,088	0,0515
383,297	0,04937
383,506	0,04723
383,715	0,04314
383,924	0,04531
384,133	0,0403
384,342	0,04329
384,552	0,04081
384,761	0,03979
384,97	0,04115
385,179	0,04059
385,388	0,0377
385,597	0,03818
385,806	0,03908
386,015	0,03931
386,224	0,03972
386,433	0,04174
386,642	0,03714
386,851	0,03386
387,06	0,03179
387,269	0,03345
387,478	0,03434
387,687	0,03392
387,896	0,03048
388,105	0,02725
388,314	0,02481
388,523	0,02249
388,731	0,0249
388,94	0,02694
389,149	0,03041
389,358	0,03307
389,567	0,03287
389,776	0,03161
389,984	0,03344
390,193	0,03696
390,402	0,03549
390,611	0,03838
390,819	0,03735
391,028	0,03695
391,237	0,03787
391,446	0,03434
391,654	0,03444
391,863	0,0327
392,072	0,03207
392,28	0,02989
392,489	0,02937
392,698	0,02827
392,906	0,02698
393,115	0,02859
393,324	0,02661
393,532	0,02514
393,741	0,02462
393,949	0,02147
394,158	0,0194
394,366	0,01688
394,575	0,01574
394,783	0,01491
394,992	0,01533
395,2	0,01361
395,409	0,01355
395,617	0,01068
395,826	0,01012
396,034	0,0088
396,243	0,011
396,451	0,01092
396,66	0,01194
396,868	0,01315
397,076	0,01153
397,285	0,01114
397,493	0,01165
397,701	0,01029
397,91	0,01076
398,118	0,00962
398,326	0,0102
398,535	0,00711
398,743	0,00908
398,951	0,0096
399,159	0,0119
399,368	0,01614
399,576	0,01777
399,784	0,01765
399,992	0,0206
400,201	0,02198
400,409	0,0221
400,617	0,02505
400,825	0,0293
401,033	0,0292
401,241	0,02809
401,45	0,02678
401,658	0,0245
401,866	0,02623
402,074	0,02719
402,282	0,0261
402,49	0,02649
402,698	0,02807
402,906	0,02477
403,114	0,02171
403,322	0,01998
403,53	0,02105
403,738	0,01978
403,946	0,01663
404,154	0,01375
404,362	0,01387
404,57	0,0106
404,778	0,01039
404,986	0,01051
405,194	0,01459
405,402	0,01781
405,609	0,01918
405,817	0,01737
406,025	0,02102
406,233	0,02462
406,441	0,02786
406,649	0,02876
406,856	0,0307
407,064	0,03183
407,272	0,03046
407,48	0,0268
407,687	0,02533
407,895	0,02632
408,103	0,02809
408,311	0,02663
408,518	0,02501
408,726	0,02442
408,934	0,02457
409,141	0,02555
409,349	0,0219
409,557	0,02338
409,764	0,02468
409,972	0,02271
410,18	0,01931
410,387	0,01878
410,595	0,01733
410,802	0,01698
411,01	0,01556
411,217	0,01431
411,425	0,01326
411,632	0,01542
411,84	0,01597
412,047	0,01513
412,255	0,01574
412,462	0,01909
412,67	0,01966
412,877	0,02159
413,085	0,01961
413,292	0,01951
413,499	0,01935
413,707	0,02064
413,914	0,01939
414,122	0,01567
414,329	0,01762
414,536	0,01847
414,744	0,01729
414,951	0,01794
415,158	0,01625
415,366	0,01771
415,573	0,01743
415,78	0,0183
415,987	0,01657
416,195	0,01818
416,402	0,01876
416,609	0,01827
416,816	0,01844
417,023	0,01873
417,231	0,01791
417,438	0,0189
417,645	0,01832
417,852	0,01886
418,059	0,02003
418,266	0,02128
418,473	0,02065
418,68	0,02263
418,888	0,02079
419,095	0,02152
419,302	0,02214
419,509	0,02144
419,716	0,02153
419,923	0,02274
420,13	0,02146
420,337	0,02007
420,544	0,02055
420,751	0,02028
420,958	0,01974
421,165	0,02205
421,371	0,01891
421,578	0,01766
421,785	0,01842
421,992	0,01782
422,199	0,01854
422,406	0,02058
422,613	0,02057
422,82	0,01952
423,026	0,01895
423,233	0,01891
423,44	0,01618
423,647	0,01799
423,854	0,01779
424,06	0,01647
424,267	0,01565
424,474	0,01517
424,681	0,01352
424,887	0,01328
425,094	0,01288
425,301	0,01486
425,507	0,01496
425,714	0,01604
425,921	0,01483
426,127	0,01372
426,334	0,01352
426,54	0,01378
426,747	0,01505
426,954	0,01461
427,16	0,01514
427,367	0,01471
427,573	0,01496
427,78	0,01538
427,986	0,01621
428,193	0,01574
428,399	0,01883
428,606	0,01959
428,812	0,01996
429,019	0,01741
429,225	0,01832
429,432	0,01845
429,638	0,02056
429,845	0,01869
430,051	0,01829
430,257	0,01632
430,464	0,01734
430,67	0,01597
430,876	0,01629
431,083	0,01762
431,289	0,01891
431,495	0,01916
431,702	0,01906
431,908	0,01632
432,114	0,01585
432,32	0,01638
432,527	0,01803
432,733	0,01762
432,939	0,01719
433,145	0,01758
433,351	0,01653
433,558	0,01658
433,764	0,01754
433,97	0,01625
434,176	0,01764
434,382	0,01887
434,588	0,01873
434,794	0,01801
435,001	0,01874
435,207	0,01891
435,413	0,01862
435,619	0,01883
435,825	0,0185
436,031	0,01739
436,237	0,01891
436,443	0,01897
436,649	0,01985
436,855	0,0203
437,061	0,02156
437,267	0,02119
437,473	0,02145
437,679	0,02219
437,884	0,02176
438,09	0,02187
438,296	0,0217
438,502	0,02025
438,708	0,0198
438,914	0,01827
439,12	0,01902
439,325	0,01879
439,531	0,02012
439,737	0,01952
439,943	0,01908
440,149	0,02011
440,354	0,02001
440,56	0,01989
440,766	0,01995
440,972	0,02134
441,177	0,02243
441,383	0,02183
441,589	0,02217
441,794	0,02122
442	0,02178
442,206	0,0223
442,411	0,02175
442,617	0,0217
442,822	0,02241
443,028	0,02327
443,234	0,02452
443,439	0,02409
443,645	0,02374
443,85	0,02363
444,056	0,02424
444,261	0,02492
444,467	0,02451
444,672	0,02473
444,878	0,02579
445,083	0,02619
445,289	0,02661
445,494	0,02513
445,699	0,02597
445,905	0,02645
446,11	0,02647
446,316	0,02649
446,521	0,02697
446,726	0,02782
446,932	0,02841
447,137	0,02801
447,342	0,02766
447,548	0,02752
447,753	0,0273
447,958	0,02735
448,164	0,02707
448,369	0,02726
448,574	0,02663
448,779	0,02596
448,984	0,02507
449,19	0,02503
449,395	0,02445
449,6	0,02426
449,805	0,02422
450,01	0,02461
450,215	0,02455
450,421	0,02501
450,626	0,02506
450,831	0,02538
451,036	0,02521
451,241	0,02583
451,446	0,02543
451,651	0,02658
451,856	0,0271
452,061	0,02775
452,266	0,02831
452,471	0,02873
452,676	0,02848
452,881	0,02903
453,086	0,03022
453,291	0,03145
453,496	0,03104
453,701	0,03133
453,906	0,03111
454,111	0,03139
454,316	0,03182
454,52	0,03172
454,725	0,03147
454,93	0,03224
455,135	0,03331
455,34	0,03314
455,545	0,03332
455,749	0,03347
455,954	0,03369
456,159	0,03376
456,364	0,03454
456,568	0,03418
456,773	0,03441
456,978	0,03515
457,182	0,03541
457,387	0,03508
457,592	0,03498
457,796	0,03405
458,001	0,03511
458,206	0,03517
458,41	0,03618
458,615	0,03655
458,82	0,03699
459,024	0,03753
459,229	0,03789
459,433	0,03776
459,638	0,03776
459,842	0,03844
460,047	0,03898
460,251	0,03932
460,456	0,03967
460,66	0,03972
460,865	0,04027
461,069	0,04077
461,274	0,04103
461,478	0,04068
461,682	0,04135
461,887	0,04138
462,091	0,04156
462,296	0,04243
462,5	0,042
462,704	0,04248
462,909	0,04218
463,113	0,04143
463,317	0,04145
463,522	0,04181
463,726	0,04237
463,93	0,0419
464,134	0,04247
464,339	0,0431
464,543	0,04306
464,747	0,04362
464,951	0,04392
465,155	0,04511
465,36	0,04581
465,564	0,04593
465,768	0,04585
465,972	0,04689
466,176	0,04769
466,38	0,0478
466,584	0,04815
466,788	0,04856
466,993	0,0492
467,197	0,04931
467,401	0,04927
467,605	0,04932
467,809	0,05012
468,013	0,05143
468,217	0,05139
468,421	0,05171
468,625	0,05157
468,829	0,05178
469,033	0,05198
469,236	0,05285
469,44	0,05274
469,644	0,05264
469,848	0,053
470,052	0,05371
470,256	0,05291
470,46	0,0532
470,664	0,05388
470,867	0,05458
471,071	0,05492
471,275	0,05578
471,479	0,05574
471,683	0,05696
471,886	0,05772
472,09	0,058
472,294	0,05769
472,497	0,0583
472,701	0,05888
472,905	0,05913
473,109	0,05946
473,312	0,05984
473,516	0,06004
473,719	0,06029
473,923	0,06063
474,127	0,06076
474,33	0,06116
474,534	0,06175
474,737	0,0626
474,941	0,06302
475,145	0,06309
475,348	0,06377
475,552	0,06388
475,755	0,0642
475,959	0,06529
476,162	0,06577
476,366	0,06692
476,569	0,06752
476,772	0,06838
476,976	0,06901
477,179	0,06952
477,383	0,07013
477,586	0,0704
477,789	0,07128
477,993	0,07237
478,196	0,07247
478,399	0,07309
478,603	0,07335
478,806	0,07439
479,009	0,07456
479,213	0,0746
479,416	0,07501
479,619	0,07621
479,822	0,07697
480,026	0,07783
480,229	0,07813
480,432	0,07903
480,635	0,07941
480,838	0,0802
481,041	0,07996
481,245	0,08055
481,448	0,08104
481,651	0,08182
481,854	0,08196
482,057	0,08243
482,26	0,08271
482,463	0,08321
482,666	0,08341
482,869	0,08402
483,072	0,08422
483,275	0,0853
483,478	0,08605
483,681	0,0871
483,884	0,08771
484,087	0,08867
484,29	0,08956
484,493	0,0901
484,696	0,09066
484,899	0,09161
485,102	0,09243
485,305	0,0931
485,508	0,09369
485,71	0,09464
485,913	0,09534
486,116	0,09582
486,319	0,09674
486,522	0,09737
486,725	0,09826
486,927	0,09919
487,13	0,09975
487,333	0,10044
487,536	0,10146
487,738	0,10211
487,941	0,10263
488,144	0,10335
488,346	0,10436
488,549	0,10443
488,752	0,10527
488,954	0,10623
489,157	0,1067
489,359	0,10749
489,562	0,10811
489,765	0,10858
489,967	0,10945
490,17	0,11018
490,372	0,11106
490,575	0,11157
490,777	0,11255
490,98	0,11314
491,182	0,11351
491,385	0,11427
491,587	0,11517
491,79	0,11588
491,992	0,11686
492,195	0,11772
492,397	0,11833
492,599	0,11897
492,802	0,11978
493,004	0,12071
493,207	0,12157
493,409	0,12267
493,611	0,12365
493,814	0,12437
494,016	0,1252
494,218	0,12577
494,42	0,12673
494,623	0,12764
494,825	0,12848
495,027	0,12899
495,229	0,12974
495,432	0,13056
495,634	0,1311
495,836	0,13208
496,038	0,13296
496,24	0,13387
496,442	0,13463
496,645	0,13534
496,847	0,13633
497,049	0,13697
497,251	0,13826
497,453	0,13944
497,655	0,14039
497,857	0,14158
498,059	0,14243
498,261	0,14312
498,463	0,14426
498,665	0,14565
498,867	0,14664
499,069	0,14777
499,271	0,1488
499,473	0,14976
499,675	0,15039
499,877	0,15128
500,079	0,15197
500,281	0,15286
500,482	0,15383
500,684	0,15483
500,886	0,15552
501,088	0,15647
501,29	0,15759
501,492	0,15858
501,693	0,15964
501,895	0,16087
502,097	0,16202
502,299	0,1632
502,5	0,16415
502,702	0,16531
502,904	0,16658
503,106	0,16794
503,307	0,16875
503,509	0,16941
503,711	0,17088
503,912	0,17186
504,114	0,17264
504,315	0,17358
504,517	0,17473
504,719	0,17592
504,92	0,17716
505,122	0,17785
505,323	0,17893
505,525	0,1802
505,726	0,18161
505,928	0,18252
506,129	0,18363
506,331	0,18476
506,532	0,18612
506,734	0,18717
506,935	0,18858
507,137	0,18944
507,338	0,19053
507,539	0,19148
507,741	0,19287
507,942	0,19386
508,143	0,19495
508,345	0,19615
508,546	0,19734
508,747	0,19858
508,949	0,19991
509,15	0,20055
509,351	0,20174
509,553	0,20284
509,754	0,20404
509,955	0,20514
510,156	0,20651
510,357	0,20784
510,559	0,20925
510,76	0,21069
510,961	0,21193
511,162	0,21316
511,363	0,21478
511,564	0,21613
511,766	0,2177
511,967	0,21932
512,168	0,22063
512,369	0,22184
512,57	0,2233
512,771	0,2247
512,972	0,22597
513,173	0,22734
513,374	0,22866
513,575	0,22984
513,776	0,23114
513,977	0,23234
514,178	0,23335
514,379	0,23473
514,58	0,23583
514,781	0,23726
514,981	0,23847
515,182	0,23985
515,383	0,24127
515,584	0,24256
515,785	0,2442
515,986	0,24594
516,187	0,24739
516,387	0,24877
516,588	0,25028
516,789	0,25229
516,99	0,25353
517,19	0,25482
517,391	0,25642
517,592	0,2578
517,793	0,25938
517,993	0,26095
518,194	0,26234
518,395	0,26367
518,595	0,26517
518,796	0,26642
518,996	0,26771
519,197	0,26922
519,398	0,27073
519,598	0,27212
519,799	0,27337
519,999	0,27469
520,2	0,27593
520,4	0,27692
520,601	0,27856
520,801	0,27998
521,002	0,28136
521,202	0,28252
521,403	0,28411
521,603	0,28572
521,804	0,28684
522,004	0,28837
522,204	0,29001
522,405	0,29152
522,605	0,29326
522,806	0,2948
523,006	0,29608
523,206	0,29783
523,407	0,29952
523,607	0,30083
523,807	0,30216
524,007	0,30372
524,208	0,30518
524,408	0,30651
524,608	0,30796
524,808	0,30943
525,009	0,31066
525,209	0,3124
525,409	0,31374
525,609	0,31495
525,809	0,31637
526,009	0,31791
526,209	0,31939
526,41	0,32075
526,61	0,32238
526,81	0,32359
527,01	0,32505
527,21	0,3265
527,41	0,3279
527,61	0,3293
527,81	0,33075
528,01	0,33191
528,21	0,3332
528,41	0,33461
528,61	0,33606
528,81	0,33706
529,01	0,33842
529,21	0,33959
529,41	0,34074
529,609	0,34178
529,809	0,34293
530,009	0,34432
530,209	0,3458
530,409	0,347
530,609	0,34832
530,808	0,3492
531,008	0,35061
531,208	0,35199
531,408	0,35314
531,608	0,35442
531,807	0,35568
532,007	0,35677
532,207	0,35785
532,406	0,35887
532,606	0,36005
532,806	0,3612
533,005	0,36247
533,205	0,36344
533,405	0,36447
533,604	0,36581
533,804	0,36724
534,003	0,36849
534,203	0,36973
534,403	0,37085
534,602	0,37195
534,802	0,37271
535,001	0,37377
535,201	0,37491
535,4	0,37598
535,6	0,37705
535,799	0,37815
535,998	0,37907
536,198	0,38007
536,397	0,38116
536,597	0,38195
536,796	0,38319
536,995	0,38454
537,195	0,38558
537,394	0,38673
537,594	0,38801
537,793	0,389
537,992	0,39011
538,191	0,39091
538,391	0,39207
538,59	0,39309
538,789	0,3942
538,988	0,39496
539,188	0,39612
539,387	0,39712
539,586	0,39818
539,785	0,39889
539,984	0,39984
540,184	0,40082
540,383	0,40208
540,582	0,40296
540,781	0,40404
540,98	0,40513
541,179	0,40617
541,378	0,40683
541,577	0,40748
541,776	0,40822
541,975	0,40925
542,174	0,40986
542,373	0,41053
542,572	0,41093
542,771	0,41176
542,97	0,41237
543,169	0,41301
543,368	0,41366
543,567	0,41443
543,766	0,41511
543,965	0,41556
544,164	0,41617
544,362	0,41714
544,561	0,41771
544,76	0,41879
544,959	0,41958
545,158	0,42028
545,356	0,4209
545,555	0,42158
545,754	0,42207
545,953	0,42275
546,151	0,42366
546,35	0,42411
546,549	0,4246
546,748	0,42513
546,946	0,4254
547,145	0,42571
547,344	0,42617
547,542	0,42661
547,741	0,42724
547,939	0,42758
548,138	0,42799
548,337	0,42818
548,535	0,42891
548,734	0,42933
548,932	0,42968
549,131	0,42988
549,329	0,4304
549,528	0,43075
549,726	0,43124
549,925	0,4316
550,123	0,43238
550,322	0,43309
550,52	0,43379
550,718	0,43401
550,917	0,43427
551,115	0,43468
551,313	0,43548
551,512	0,43597
551,71	0,43663
551,908	0,43723
552,107	0,43764
552,305	0,43784
552,503	0,43816
552,702	0,43848
552,9	0,43874
553,098	0,43927
553,296	0,43982
553,495	0,44036
553,693	0,44045
553,891	0,44073
554,089	0,44086
554,287	0,44127
554,485	0,44174
554,683	0,44208
554,882	0,44268
555,08	0,44335
555,278	0,44384
555,476	0,44448
555,674	0,44474
555,872	0,44539
556,07	0,44588
556,268	0,4466
556,466	0,44698
556,664	0,44747
556,862	0,44812
557,06	0,44869
557,258	0,44924
557,456	0,44989
557,654	0,45051
557,851	0,45118
558,049	0,45172
558,247	0,45238
558,445	0,45285
558,643	0,45348
558,841	0,4541
559,039	0,45481
559,236	0,45521
559,434	0,4559
559,632	0,45659
559,83	0,4571
560,027	0,45757
560,225	0,45818
560,423	0,45872
560,62	0,45956
560,818	0,46011
561,016	0,46102
561,213	0,46146
561,411	0,46212
561,609	0,46273
561,806	0,46322
562,004	0,46367
562,202	0,46464
562,399	0,46551
562,597	0,46632
562,794	0,46699
562,992	0,46801
563,189	0,46878
563,387	0,4697
563,584	0,47077
563,782	0,47151
563,979	0,47239
564,177	0,47344
564,374	0,47429
564,571	0,47516
564,769	0,47617
564,966	0,47692
565,164	0,47784
565,361	0,47864
565,558	0,47937
565,756	0,48006
565,953	0,48101
566,15	0,48201
566,347	0,48304
566,545	0,48373
566,742	0,48454
566,939	0,48534
567,136	0,48636
567,334	0,48726
567,531	0,48811
567,728	0,48943
567,925	0,49066
568,122	0,49182
568,319	0,49299
568,517	0,49396
568,714	0,49514
568,911	0,49624
569,108	0,4975
569,305	0,49878
569,502	0,49981
569,699	0,50127
569,896	0,50231
570,093	0,50341
570,29	0,50481
570,487	0,50586
570,684	0,5073
570,881	0,50887
571,078	0,51023
571,275	0,51134
571,472	0,51246
571,669	0,51389
571,866	0,51509
572,062	0,51638
572,259	0,51772
572,456	0,51867
572,653	0,52011
572,85	0,52126
573,047	0,52231
573,243	0,52371
573,44	0,52509
573,637	0,52639
573,834	0,52768
574,03	0,52901
574,227	0,53024
574,424	0,53178
574,62	0,53334
574,817	0,53475
575,014	0,53593
575,21	0,53746
575,407	0,53891
575,604	0,54033
575,8	0,54204
575,997	0,54354
576,193	0,54482
576,39	0,5466
576,586	0,54766
576,783	0,54919
576,979	0,55062
577,176	0,55219
577,372	0,55355
577,569	0,55509
577,765	0,55651
577,962	0,55769
578,158	0,5592
578,355	0,56081
578,551	0,5621
578,747	0,56355
578,944	0,56509
579,14	0,56642
579,336	0,56788
579,533	0,56912
579,729	0,57034
579,925	0,57184
580,122	0,57338
580,318	0,57457
580,514	0,57598
580,71	0,57722
580,906	0,57868
581,103	0,58003
581,299	0,58144
581,495	0,58252
581,691	0,5839
581,887	0,58512
582,084	0,5862
582,28	0,58742
582,476	0,58853
582,672	0,5892
582,868	0,59049
583,064	0,59171
583,26	0,59262
583,456	0,5935
583,652	0,59459
583,848	0,59574
584,044	0,59673
584,24	0,5977
584,436	0,59867
584,632	0,59959
584,828	0,6007
585,024	0,60139
585,22	0,60223
585,416	0,60285
585,611	0,60371
585,807	0,60465
586,003	0,60517
586,199	0,60586
586,395	0,60643
586,591	0,6068
586,786	0,60742
586,982	0,60814
587,178	0,6086
587,374	0,60901
587,569	0,60947
587,765	0,6097
587,961	0,60991
588,156	0,61017
588,352	0,61044
588,548	0,6107
588,743	0,6108
588,939	0,61084
589,135	0,61089
589,33	0,61091
589,526	0,61095
589,721	0,61077
589,917	0,6105
590,112	0,61031
590,308	0,6102
590,503	0,61007
590,699	0,60995
590,894	0,60981
591,09	0,60958
591,285	0,60913
591,481	0,60872
591,676	0,60801
591,872	0,60739
592,067	0,60701
592,262	0,60651
592,458	0,60588
592,653	0,60494
592,848	0,6039
593,044	0,60301
593,239	0,60207
593,434	0,60084
593,629	0,59977
593,825	0,59843
594,02	0,59743
594,215	0,59623
594,41	0,59487
594,606	0,59327
594,801	0,59197
594,996	0,59062
595,191	0,58914
595,386	0,58736
595,581	0,58597
595,777	0,5845
595,972	0,58329
596,167	0,58171
596,362	0,57993
596,557	0,57812
596,752	0,57659
596,947	0,57475
597,142	0,57301
597,337	0,57095
597,532	0,56919
597,727	0,56705
597,922	0,56489
598,117	0,56242
598,312	0,56033
598,507	0,5582
598,701	0,55602
598,896	0,55369
599,091	0,55126
599,286	0,54861
599,481	0,54625
599,676	0,54383
599,87	0,54149
600,065	0,53892
600,26	0,53655
600,455	0,53377
600,65	0,53119
600,844	0,52841
601,039	0,52567
601,234	0,52287
601,428	0,52035
601,623	0,51749
601,818	0,51452
602,012	0,51185
602,207	0,50905
602,402	0,50607
602,596	0,50305
602,791	0,49984
602,985	0,49706
603,18	0,49403
603,374	0,49097
603,569	0,48772
603,763	0,48469
603,958	0,48154
604,152	0,47816
604,347	0,47495
604,541	0,47173
604,736	0,46855
604,93	0,46544
605,125	0,46185
605,319	0,45868
605,513	0,45541
605,708	0,45205
605,902	0,44863
606,096	0,44531
606,291	0,44206
606,485	0,43869
606,679	0,4354
606,874	0,43189
607,068	0,42867
607,262	0,42541
607,456	0,42193
607,65	0,41845
607,845	0,41522
608,039	0,41208
608,233	0,4087
608,427	0,40511
608,621	0,40167
608,815	0,39819
609,01	0,39503
609,204	0,3915
609,398	0,3882
609,592	0,38491
609,786	0,3818
609,98	0,3785
610,174	0,37494
610,368	0,37169
610,562	0,36845
610,756	0,36524
610,95	0,36213
611,144	0,35881
611,338	0,35553
611,532	0,35207
611,726	0,34853
611,919	0,345
612,113	0,34158
612,307	0,33833
612,501	0,33481
612,695	0,33149
612,889	0,32795
613,082	0,32436
613,276	0,32098
613,47	0,31772
613,664	0,31447
613,857	0,31117
614,051	0,308
614,245	0,3048
614,439	0,30148
614,632	0,29836
614,826	0,29511
615,02	0,29198
615,213	0,28899
615,407	0,28585
615,6	0,28265
615,794	0,27953
615,988	0,27652
616,181	0,27338
616,375	0,27024
616,568	0,2673
616,762	0,26425
616,955	0,26134
617,149	0,25839
617,342	0,25529
617,536	0,25231
617,729	0,24949
617,923	0,2467
618,116	0,24394
618,309	0,24099
618,503	0,23824
618,696	0,23535
618,889	0,23259
619,083	0,22964
619,276	0,22692
619,469	0,22423
619,663	0,22151
619,856	0,21882
620,049	0,21628
620,242	0,21357
620,436	0,21102
620,629	0,20842
620,822	0,2058
621,015	0,20326
621,209	0,20097
621,402	0,19864
621,595	0,19619
621,788	0,19389
621,981	0,1914
622,174	0,18891
622,367	0,18648
622,56	0,18408
622,753	0,1817
622,946	0,17937
623,139	0,17712
623,332	0,17484
623,525	0,17239
623,718	0,17015
623,911	0,16795
624,104	0,16582
624,297	0,1636
624,49	0,16163
624,683	0,15964
624,876	0,15765
625,069	0,15568
625,262	0,15375
625,454	0,15172
625,647	0,1498
625,84	0,14774
626,033	0,14573
626,226	0,14381
626,418	0,14185
626,611	0,13994
626,804	0,13796
626,997	0,13601
627,189	0,13415
627,382	0,13223
627,575	0,13052
627,767	0,12872
627,96	0,12712
628,153	0,12538
628,345	0,12364
628,538	0,12194
628,731	0,12023
628,923	0,11865
629,116	0,11723
629,308	0,1156
629,501	0,11398
629,693	0,1124
629,886	0,11093
630,078	0,10927
630,271	0,10797
630,463	0,10652
630,656	0,10515
630,848	0,10372
631,04	0,10228
631,233	0,10078
631,425	0,09944
631,617	0,09808
631,81	0,09667
632,002	0,09529
632,194	0,09408
632,387	0,09264
632,579	0,09128
632,771	0,08985
632,964	0,08862
633,156	0,08736
633,348	0,08601
633,54	0,08481
633,732	0,08349
633,925	0,08232
634,117	0,08123
634,309	0,08
634,501	0,07877
634,693	0,0776
634,885	0,07649
635,077	0,07529
635,269	0,0742
635,462	0,07325
635,654	0,07217
635,846	0,07129
636,038	0,07019
636,23	0,06915
636,422	0,06806
636,614	0,06704
636,806	0,06622
636,997	0,06537
637,189	0,06445
637,381	0,0635
637,573	0,06254
637,765	0,06165
637,957	0,06059
638,149	0,05979
638,341	0,05895
638,532	0,05818
638,724	0,05743
638,916	0,05651
639,108	0,05571
639,299	0,055
639,491	0,05422
639,683	0,05352
639,875	0,05281
640,066	0,05217
640,258	0,05133
640,45	0,05044
640,641	0,04985
640,833	0,04907
641,025	0,04845
641,216	0,04769
641,408	0,04687
641,599	0,04625
641,791	0,04552
641,982	0,04481
642,174	0,0442
642,366	0,04355
642,557	0,04297
642,748	0,04217
642,94	0,04162
643,131	0,04087
643,323	0,0403
643,514	0,03978
643,706	0,03921
643,897	0,03866
644,088	0,03809
644,28	0,03755
644,471	0,03705
644,662	0,03652
644,854	0,03604
645,045	0,03546
645,236	0,03494
645,428	0,03441
645,619	0,0338
645,81	0,03326
646,001	0,03266
646,193	0,03219
646,384	0,03155
646,575	0,03102
646,766	0,03058
646,957	0,03021
647,148	0,02976
647,339	0,02935
647,531	0,029
647,722	0,0286
647,913	0,02813
648,104	0,02776
648,295	0,02726
648,486	0,02693
648,677	0,02652
648,868	0,02613
649,059	0,02573
649,25	0,02539
649,441	0,02507
649,632	0,02452
649,823	0,02417
650,013	0,02387
650,204	0,02351
650,395	0,02315
650,586	0,02286
650,777	0,02262
650,968	0,0222
651,159	0,02185
651,349	0,02147
651,54	0,0211
651,731	0,02086
651,922	0,02054
652,112	0,0202
652,303	0,01992
652,494	0,01971
652,684	0,01939
652,875	0,01908
653,066	0,01892
653,256	0,01867
653,447	0,01846
653,638	0,01816
653,828	0,01787
654,019	0,01767
654,209	0,0174
654,4	0,01719
654,59	0,01703
654,781	0,01682
654,972	0,01658
655,162	0,01639
655,352	0,01608
655,543	0,01578
655,733	0,01558
655,924	0,01549
656,114	0,01522
656,305	0,01504
656,495	0,01481
656,685	0,01445
656,876	0,01422
657,066	0,01395
657,256	0,0137
657,447	0,01361
657,637	0,01345
657,827	0,01336
658,017	0,01316
658,208	0,01303
658,398	0,01275
658,588	0,01251
658,778	0,01243
658,968	0,01226
659,159	0,01219
659,349	0,01199
659,539	0,01172
659,729	0,01158
659,919	0,01143
660,109	0,01123
660,299	0,01111
660,489	0,01113
660,679	0,01104
660,869	0,01085
661,059	0,01072
661,249	0,01057
661,439	0,01037
661,629	0,01022
661,819	0,01006
662,009	0,00985
662,199	0,00974
662,389	0,00952
662,579	0,00929
662,769	0,00913
662,959	0,009
663,149	0,00891
663,338	0,00875
663,528	0,00871
663,718	0,00868
663,908	0,00852
664,097	0,0083
664,287	0,00809
664,477	0,00805
664,667	0,00789
664,856	0,00778
665,046	0,00759
665,236	0,00753
665,425	0,00746
665,615	0,00743
665,805	0,00732
665,994	0,00736
666,184	0,0073
666,373	0,00729
666,563	0,00722
666,753	0,00721
666,942	0,00708
667,132	0,00701
667,321	0,0068
667,511	0,00671
667,7	0,0066
667,889	0,00635
668,079	0,00622
668,268	0,00621
668,458	0,0061
668,647	0,00603
668,836	0,00594
669,026	0,00594
669,215	0,00582
669,404	0,00587
669,594	0,00575
669,783	0,00569
669,972	0,00573
670,162	0,00567
670,351	0,00552
670,54	0,00543
670,729	0,00529
670,919	0,00516
671,108	0,00509
671,297	0,00509
671,486	0,0049
671,675	0,00484
671,864	0,00472
672,053	0,00468
672,243	0,00458
672,432	0,00447
672,621	0,00439
672,81	0,00436
672,999	0,00436
673,188	0,00436
673,377	0,0043
673,566	0,00433
673,755	0,00423
673,944	0,00413
674,133	0,00392
674,322	0,00387
674,51	0,00398
674,699	0,00402
674,888	0,00393
675,077	0,00385
675,266	0,0038
675,455	0,00386
675,644	0,00379
675,832	0,00378
676,021	0,0038
676,21	0,00395
676,399	0,00384
676,587	0,00382
676,776	0,00369
676,965	0,00365
677,153	0,00365
677,342	0,0035
677,531	0,00338
677,719	0,00328
677,908	0,00331
678,097	0,00331
678,285	0,00324
678,474	0,0032
678,662	0,00309
678,851	0,00307
679,039	0,00296
679,228	0,00289
679,416	0,00292
679,605	0,00286
679,793	0,00292
679,982	0,00282
680,17	0,00267
680,359	0,00268
680,547	0,00272
680,736	0,00272
680,924	0,00272
681,112	0,00277
681,301	0,00277
681,489	0,00277
681,677	0,00274
681,866	0,00266
682,054	0,00262
682,242	0,00263
682,43	0,00262
682,619	0,00254
682,807	0,00243
682,995	0,0023
683,183	0,00229
683,371	0,00236
683,559	0,00228
683,748	0,00222
683,936	0,00224
684,124	0,00218
684,312	0,00217
684,5	0,00205
684,688	0,00216
684,876	0,00217
685,064	0,00214
685,252	0,00208
685,44	0,00192
685,628	0,00194
685,816	0,00197
686,004	0,00193
686,192	0,00187
686,38	0,0018
686,568	0,00175
686,756	0,00155
686,944	0,00152
687,131	0,00158
687,319	0,00158
687,507	0,00162
687,695	0,00146
687,883	0,00137
688,07	0,00129
688,258	0,00133
688,446	0,00129
688,634	0,00137
688,821	0,0014
689,009	0,00133
689,197	0,00136
689,384	0,00134
689,572	0,00126
689,76	0,00134
689,947	0,00134
690,135	0,00138
690,323	0,00144
690,51	0,00144
690,698	0,00138
690,885	0,00144
691,073	0,00154
691,26	0,00142
691,448	0,00147
691,635	0,00147
691,823	0,00143
692,01	0,00141
692,197	0,00136
692,385	0,00134
692,572	0,00139
692,76	0,00141
692,947	0,00131
693,134	0,00133
693,322	0,00134
693,509	0,0012
693,696	0,00115
693,884	0,00111
694,071	0,00116
694,258	0,00115
694,445	0,00103
694,633	0,00091
694,82	0,00074
695,007	0,00075
695,194	0,0007
695,381	0,00058
695,568	0,00064
695,756	0,00061
695,943	0,00058
696,13	0,00043
696,317	0,00046
696,504	0,00052
696,691	0,00057
696,878	0,00073
697,065	0,00066
697,252	0,00069
697,439	0,00085
697,626	0,00081
697,813	0,00088
698	0,00082
698,187	0,00085
698,374	0,00076
698,561	0,00072
698,747	0,00067
698,934	0,00051
699,121	0,00058
699,308	0,00048
699,495	0,00035
699,682	0,00033
699,868	0,00025
700,055	0,00028
700,242	0,00021
700,429	0,00022
700,615	0,00011
700,802	0,00005
700,989	0,00001
701,175	-0,00007
701,362	-0,00005
701,549	-0,00004
701,735	0,00001
701,922	0,00002
702,108	0,0001
702,295	0,00015
702,482	0,0001
702,668	0,00025
702,855	0,00024
703,041	0,00042
703,228	0,00047
703,414	0,00041
703,601	0,00049
703,787	0,00042
703,973	0,00033
704,16	0,00016
704,346	0,00017
704,533	0,00026
704,719	0,00011
704,905	0,00003
705,092	-0,00011
705,278	-0,00014
705,464	-0,00005
705,65	-0,00014
705,837	-0,00015
706,023	-0,00009
706,209	0,00001
706,395	-0,00005
706,582	-0,00013
706,768	-0,00008
706,954	0,00004
707,14	-0,00002
707,326	-0,00001
707,512	-0,00016
707,698	-0,00013
707,885	-0,00017
708,071	-0,00023
708,257	-0,0003
708,443	-0,00022
708,629	-0,00013
708,815	-0,00012
709,001	-0,00018
709,187	-0,00021
709,373	-0,00017
709,559	-0,00014
709,745	-0,00023
709,93	-0,00031
710,116	-0,00032
710,302	-0,00031
710,488	-0,00034
710,674	-0,00041
710,86	-0,00039
711,046	-0,00025
711,231	-0,00023
711,417	-0,00029
711,603	-0,00035
711,789	-0,0004
711,974	-0,00031
712,16	-0,00031
712,346	-0,00022
712,532	-0,0003
712,717	-0,00032
712,903	-0,00041
713,089	-0,0006
713,274	-0,00057
713,46	-0,0006
713,645	-0,00056
713,831	-0,00044
714,016	-0,0005
714,202	-0,00043
714,388	-0,00037
714,573	-0,00041
714,759	-0,00044
714,944	-0,00038
715,129	-0,00036
715,315	-0,00034
715,5	-0,00037
715,686	-0,0004
715,871	-0,00044
716,057	-0,00039
716,242	-0,00038
716,427	-0,00053
716,613	-0,00049
716,798	-0,00053
716,983	-0,00059
717,168	-0,00062
717,354	-0,00058
717,539	-0,00053
717,724	-0,00053
717,909	-0,00053
718,095	-0,00047
718,28	-0,00057
718,465	-0,00051
718,65	-0,00054
718,835	-0,00054
719,02	-0,00052
719,206	-0,00047
719,391	-0,00049
719,576	-0,00058
719,761	-0,00061
719,946	-0,00068
720,131	-0,00074
720,316	-0,0007
720,501	-0,0008
720,686	-0,00067
720,871	-0,00056
721,056	-0,00057
721,241	-0,00061
721,426	-0,0007
721,61	-0,00066
721,795	-0,00063
721,98	-0,00064
722,165	-0,00065
722,35	-0,00058
722,535	-0,00062
722,719	-0,00068
722,904	-0,00078
723,089	-0,0008
723,274	-0,00085
723,458	-0,00082
723,643	-0,00078
723,828	-0,00085
724,013	-0,00088
724,197	-0,00092
724,382	-0,001
724,567	-0,00096
724,751	-0,00095
724,936	-0,00092
725,12	-0,0009
725,305	-0,00082
725,489	-0,00086
725,674	-0,00101
725,859	-0,00092
726,043	-0,00084
726,228	-0,0008
726,412	-0,00084
726,596	-0,00085
726,781	-0,00082
726,965	-0,00087
727,15	-0,00073
727,334	-0,00077
727,518	-0,00074
727,703	-0,00063
727,887	-0,00068
728,072	-0,0007
728,256	-0,00071
728,44	-0,0007
728,624	-0,00062
728,809	-0,00082
728,993	-0,00076
729,177	-0,0009
729,361	-0,0009
729,546	-0,00096
729,73	-0,00104
729,914	-0,00107
730,098	-0,00108
730,282	-0,0011
730,466	-0,00107
730,65	-0,00114
730,834	-0,00102
731,019	-0,00113
731,203	-0,00112
731,387	-0,00107
731,571	-0,00108
731,755	-0,00095
731,939	-0,00095
732,123	-0,00097
732,306	-0,00095
732,49	-0,00098
732,674	-0,00092
732,858	-0,00092
733,042	-0,00087
733,226	-0,00078
733,41	-0,00079
733,594	-0,00068
733,778	-0,00072
733,961	-0,00068
734,145	-0,00067
734,329	-0,00065
734,513	-0,00066
734,696	-0,00073
734,88	-0,00078
735,064	-0,00082
735,247	-0,00096
735,431	-0,00099
735,615	-0,00106
735,798	-0,00098
735,982	-0,00095
736,166	-0,00092
736,349	-0,00108
736,533	-0,0011
736,716	-0,00104
736,9	-0,00111
737,083	-0,00109
737,267	-0,00115
737,45	-0,00119
737,634	-0,00119
737,817	-0,00131
738,001	-0,0014
738,184	-0,00143
738,368	-0,00129
738,551	-0,00131
738,734	-0,0014
738,918	-0,00131
739,101	-0,00126
739,284	-0,00122
739,468	-0,00134
739,651	-0,00125
739,834	-0,0012
740,018	-0,00123
740,201	-0,00127
740,384	-0,00132
740,567	-0,00121
740,75	-0,00117
740,934	-0,00122
741,117	-0,00127
741,3	-0,00114
741,483	-0,00104
741,666	-0,00123
741,849	-0,00122
742,032	-0,00115
742,215	-0,00115
742,399	-0,00111
742,582	-0,00123
742,765	-0,0011
742,948	-0,00104
743,131	-0,001
743,314	-0,00115
743,496	-0,00113
743,679	-0,00104
743,862	-0,00101
744,045	-0,00096
744,228	-0,00087
744,411	-0,00096
744,594	-0,00091
744,777	-0,00098
744,959	-0,00104
745,142	-0,00106
745,325	-0,00091
745,508	-0,00098
745,691	-0,00093
745,873	-0,00107
746,056	-0,00117
746,239	-0,00129
746,421	-0,00119
746,604	-0,00123
746,787	-0,00128
746,969	-0,00134
747,152	-0,00146
747,335	-0,00165
747,517	-0,00158
747,7	-0,0015
747,882	-0,00148
748,065	-0,0016
748,247	-0,0015
748,43	-0,00169
748,612	-0,00164
748,795	-0,00164
748,977	-0,00162
749,16	-0,00157
749,342	-0,00149
749,524	-0,00157
749,707	-0,00166
749,889	-0,00163
750,072	-0,00153
750,254	-0,00156
750,436	-0,00141
750,619	-0,00153
750,801	-0,00155
750,983	-0,00156
751,165	-0,00156
751,348	-0,00154
751,53	-0,00151
751,712	-0,00157
751,894	-0,00159
752,076	-0,00149
752,259	-0,00148
752,441	-0,00145
752,623	-0,00143
752,805	-0,00154
752,987	-0,00157
753,169	-0,00157
753,351	-0,00167
753,533	-0,00174
753,715	-0,00171
753,897	-0,00177
754,079	-0,00172
754,261	-0,00182
754,443	-0,00191
754,625	-0,0018
754,807	-0,00169
754,989	-0,00155
755,171	-0,00149
755,353	-0,00142
755,534	-0,00141
755,716	-0,00149
755,898	-0,00157
756,08	-0,00153
756,262	-0,00144
756,443	-0,00148
756,625	-0,00147
756,807	-0,00151
756,989	-0,00167
757,17	-0,00175
757,352	-0,00172
757,534	-0,00155
757,715	-0,00146
757,897	-0,00142
758,079	-0,00163
758,26	-0,00164
758,442	-0,00153
758,623	-0,00159
758,805	-0,00156
758,987	-0,00156
759,168	-0,00157
759,35	-0,00167
759,531	-0,00176
759,713	-0,0018
759,894	-0,00179
760,075	-0,00174
760,257	-0,00187
760,438	-0,00198
760,62	-0,00198
760,801	-0,00194
760,982	-0,00191
761,164	-0,0019
761,345	-0,00183
761,526	-0,00186
761,708	-0,00186
761,889	-0,00188
762,07	-0,00193
762,251	-0,00181
762,433	-0,00178
762,614	-0,00174
762,795	-0,00183
762,976	-0,0018
763,157	-0,00167
763,338	-0,00172
763,52	-0,00178
763,701	-0,00179
763,882	-0,00177
764,063	-0,00173
764,244	-0,00176
764,425	-0,00178
764,606	-0,00189
764,787	-0,00186
764,968	-0,00186
765,149	-0,00207
765,33	-0,00211
765,511	-0,00209
765,692	-0,00219
765,873	-0,00218
766,053	-0,00224
766,234	-0,00227
766,415	-0,00217
766,596	-0,00223
766,777	-0,00223
766,958	-0,00232
767,138	-0,00218
767,319	-0,00219
767,5	-0,00217
767,681	-0,00215
767,861	-0,0021
768,042	-0,00205
768,223	-0,00207
768,403	-0,00222
768,584	-0,00212
768,765	-0,00216
768,945	-0,00226
769,126	-0,00226
769,307	-0,00214
769,487	-0,00211
769,668	-0,00202
769,848	-0,00205
770,029	-0,00208
770,209	-0,00211
770,39	-0,00217
770,57	-0,00213
770,751	-0,0021
770,931	-0,00195
771,111	-0,00204
771,292	-0,00215
771,472	-0,00213
771,653	-0,0022
771,833	-0,00226
772,013	-0,00225
772,194	-0,00211
772,374	-0,00208
772,554	-0,00211
772,734	-0,00209
772,915	-0,00206
773,095	-0,00201
773,275	-0,00201
773,455	-0,00202
773,635	-0,00214
773,816	-0,00209
773,996	-0,00195
774,176	-0,00199
774,356	-0,00192
774,536	-0,00188
774,716	-0,00189
774,896	-0,00206
775,076	-0,00219
775,256	-0,0022
775,436	-0,00219
775,616	-0,00206
775,796	-0,00197
775,976	-0,00206
776,156	-0,00209
776,336	-0,00202
776,516	-0,0021
776,696	-0,00213
776,876	-0,00193
777,056	-0,00186
777,235	-0,00193
777,415	-0,00187
777,595	-0,00194
777,775	-0,00205
777,955	-0,0022
778,134	-0,00228
778,314	-0,00224
778,494	-0,00223
778,674	-0,00215
778,853	-0,00221
779,033	-0,00216
779,213	-0,00205
779,392	-0,00217
779,572	-0,00209
779,751	-0,0022
779,931	-0,00204
780,111	-0,00202
780,29	-0,00209
780,47	-0,00205
780,649	-0,00213
780,829	-0,00212
781,008	-0,00202
781,188	-0,00199
781,367	-0,00195
781,546	-0,00195
781,726	-0,00187
781,905	-0,00195
782,085	-0,00199
782,264	-0,00203
782,443	-0,0021
782,623	-0,00208
782,802	-0,00207
782,981	-0,00221
783,161	-0,00225
783,34	-0,0023
783,519	-0,00225
783,698	-0,00226
783,878	-0,00219
784,057	-0,00217
784,236	-0,00209
784,415	-0,00189
784,594	-0,00195
784,773	-0,00201
784,952	-0,00197
785,132	-0,00202
785,311	-0,00189
785,49	-0,00205
785,669	-0,00204
785,848	-0,00197
786,027	-0,0019
786,206	-0,00193
786,385	-0,00214
786,564	-0,00216
786,743	-0,00213
786,922	-0,00208
787,1	-0,00211
787,279	-0,00211
787,458	-0,00202
787,637	-0,00195
787,816	-0,00202
787,995	-0,00209
788,174	-0,00211
788,352	-0,00201
788,531	-0,00198
788,71	-0,00201
788,889	-0,00219
789,067	-0,00221
789,246	-0,00236
789,425	-0,00235
789,603	-0,00249
789,782	-0,0025
789,961	-0,00244
790,139	-0,00252
790,318	-0,00254
790,496	-0,00251
790,675	-0,00243
790,853	-0,00228
791,032	-0,00221
791,211	-0,00216
791,389	-0,00221
791,568	-0,00199
791,746	-0,00206
791,924	-0,00201
792,103	-0,00191
792,281	-0,00192
792,46	-0,00184
792,638	-0,00184
792,816	-0,00183
792,995	-0,00183
793,173	-0,00183
793,351	-0,00186
793,53	-0,002
793,708	-0,002
793,886	-0,00199
794,064	-0,00208
794,243	-0,00203
794,421	-0,00204
794,599	-0,00202
794,777	-0,00219
794,955	-0,00221
795,133	-0,00226
795,312	-0,00228
795,49	-0,00222
795,668	-0,00216
795,846	-0,00227
796,024	-0,00211
796,202	-0,00213
796,38	-0,00219
796,558	-0,00239
796,736	-0,00233
796,914	-0,00228
797,092	-0,00228
797,27	-0,00228
797,448	-0,00232
797,626	-0,00243
797,803	-0,00248
797,981	-0,0025
798,159	-0,00261
798,337	-0,00264
798,515	-0,0026
798,693	-0,00255
798,87	-0,00256
799,048	-0,00257
799,226	-0,00252
799,404	-0,00271
799,581	-0,00263
799,759	-0,00259
799,937	-0,00276
800,114	-0,00278
800,292	-0,00294
800,469	-0,00292
800,647	-0,00295
800,825	-0,00297
801,002	-0,00298
801,18	-0,00307
801,357	-0,00279
801,535	-0,0028
801,712	-0,0029
801,89	-0,00281
802,067	-0,00279
802,245	-0,00276
802,422	-0,00271
802,6	-0,0028
802,777	-0,00281
802,954	-0,00278
803,132	-0,00271
803,309	-0,00289
803,486	-0,00301
803,664	-0,00296
803,841	-0,00285
804,018	-0,00278
804,195	-0,00268
804,373	-0,00278
804,55	-0,00269
804,727	-0,00264
804,904	-0,00262
805,081	-0,00257
805,259	-0,00262
805,436	-0,0026
805,613	-0,00254
805,79	-0,00258
805,967	-0,00261
806,144	-0,00261
806,321	-0,00259
806,498	-0,00257
806,675	-0,00253
806,852	-0,00258
807,029	-0,00259
807,206	-0,00251
807,383	-0,00235
807,56	-0,00237
807,737	-0,00251
807,914	-0,00259
808,091	-0,00257
808,268	-0,00242
808,444	-0,00226
808,621	-0,00241
808,798	-0,0026
808,975	-0,00263
809,152	-0,00273
809,328	-0,00271
809,505	-0,00278
809,682	-0,00277
809,858	-0,00274
810,035	-0,00271
810,212	-0,00295
810,388	-0,00306
810,565	-0,00292
810,742	-0,00277
810,918	-0,00289
811,095	-0,00287
811,271	-0,00295
811,448	-0,00288
811,625	-0,00273
811,801	-0,00277
811,978	-0,00281
812,154	-0,00274
812,33	-0,00273
812,507	-0,00278
812,683	-0,00273
812,86	-0,0026
813,036	-0,00228
813,212	-0,00231
813,389	-0,00251
813,565	-0,00276
813,741	-0,00261
813,918	-0,00267
814,094	-0,00261
814,27	-0,00275
814,447	-0,00267
814,623	-0,00264
814,799	-0,00267
814,975	-0,00291
815,151	-0,00287
815,328	-0,00274
815,504	-0,0026
815,68	-0,00266
815,856	-0,00254
816,032	-0,00249
816,208	-0,00254
816,384	-0,00269
816,56	-0,00275
816,736	-0,00289
816,912	-0,00281
817,088	-0,00283
817,264	-0,00282
817,44	-0,00288
817,616	-0,00297
817,792	-0,00315
817,968	-0,00312
818,144	-0,00291
818,32	-0,00277
818,495	-0,00275
818,671	-0,00263
818,847	-0,00283
819,023	-0,00278
819,199	-0,00274
819,374	-0,00246
819,55	-0,00248
819,726	-0,00228
819,902	-0,00229
820,077	-0,00251
820,253	-0,00256
820,429	-0,00251
820,604	-0,00219
820,78	-0,00206
820,956	-0,0021
821,131	-0,00217
821,307	-0,0023
821,482	-0,00226
821,658	-0,00236
821,833	-0,00263
822,009	-0,00267
822,184	-0,00262
822,36	-0,00279
822,535	-0,00313
822,711	-0,00309
822,886	-0,00312
823,061	-0,0031
823,237	-0,00311
823,412	-0,00298
823,587	-0,00299
823,763	-0,00289
823,938	-0,00284
824,113	-0,00286
824,289	-0,00284
824,464	-0,00284
824,639	-0,00285
824,814	-0,00294
824,99	-0,00296
825,165	-0,00302
825,34	-0,00308
825,515	-0,00297
825,69	-0,00281
825,865	-0,00283
826,04	-0,00281
826,215	-0,00257
826,39	-0,00232
826,566	-0,00223
826,741	-0,00208
826,916	-0,00197
827,091	-0,00198
827,265	-0,00198
827,44	-0,002
827,615	-0,00197
827,79	-0,00194
827,965	-0,0018
828,14	-0,00187
828,315	-0,00193
828,49	-0,00198
828,665	-0,0019
828,839	-0,00202
829,014	-0,00199
829,189	-0,00212
829,364	-0,00208
829,538	-0,00202
829,713	-0,00208
829,888	-0,00239
830,063	-0,00247
830,237	-0,00261
830,412	-0,00255
830,587	-0,00272
830,761	-0,00258
830,936	-0,00266
831,11	-0,00256
831,285	-0,00261
831,459	-0,0026
831,634	-0,00248
831,809	-0,00234
831,983	-0,00234
832,157	-0,00213
832,332	-0,00228
832,506	-0,00225
832,681	-0,00245
832,855	-0,0025
833,03	-0,00256
833,204	-0,00256
833,378	-0,00277
833,553	-0,0028
833,727	-0,00273
833,901	-0,00276
834,076	-0,00288
834,25	-0,00287
834,424	-0,00289
834,598	-0,00285
834,773	-0,00276
834,947	-0,00269
835,121	-0,00277
835,295	-0,0027
835,469	-0,00287
835,643	-0,00315
835,817	-0,00326
835,991	-0,00338
836,166	-0,00344
836,34	-0,00335
836,514	-0,0033
836,688	-0,00325
836,862	-0,00323
837,036	-0,00321
837,21	-0,00318
837,384	-0,00302
837,557	-0,00276
837,731	-0,00261
837,905	-0,00255
838,079	-0,00258
838,253	-0,00249
838,427	-0,00256
838,601	-0,00261
838,774	-0,00282
838,948	-0,00274
839,122	-0,00249
839,296	-0,00251
839,469	-0,00239
839,643	-0,00247
839,817	-0,00269
839,991	-0,00279
840,164	-0,00288
840,338	-0,00311
840,512	-0,0032
840,685	-0,00289
840,859	-0,00302
841,032	-0,00331
841,206	-0,00328
841,379	-0,00352
841,553	-0,0034
841,726	-0,00313
841,9	-0,00277
842,073	-0,00271
842,247	-0,00248
842,42	-0,00238
842,594	-0,0024
842,767	-0,00236
842,94	-0,00232
843,114	-0,00216
843,287	-0,00207
843,46	-0,0024
843,634	-0,00248
843,807	-0,00276
843,98	-0,00297
844,154	-0,0029
844,327	-0,00272
844,5	-0,00279
844,673	-0,00275
844,846	-0,00291
845,02	-0,00299
845,193	-0,00335
845,366	-0,00317
845,539	-0,00321
845,712	-0,00307
845,885	-0,00307
846,058	-0,00311
846,231	-0,00346
846,404	-0,00354
846,577	-0,00363
846,75	-0,00347
846,923	-0,00338
847,096	-0,00302
847,269	-0,00279
847,442	-0,00278
847,615	-0,00268
847,788	-0,00256
847,961	-0,00251
848,133	-0,00231
848,306	-0,00228
848,479	-0,00211
848,652	-0,00211
848,825	-0,00218
848,997	-0,00208
849,17	-0,00229
849,343	-0,00233
849,515	-0,00245
849,688	-0,00258
849,861	-0,00248
850,033	-0,00235
850,206	-0,00245
850,379	-0,00254
850,551	-0,00237
850,724	-0,00238
850,896	-0,00281
851,069	-0,00275
851,241	-0,00264
851,414	-0,00248
851,586	-0,0024
851,759	-0,0026
851,931	-0,00281
852,104	-0,0027
852,276	-0,00274
852,449	-0,00271
852,621	-0,00281
852,793	-0,00277
852,966	-0,00279
853,138	-0,00278
853,31	-0,00284
853,483	-0,00285
853,655	-0,00288
853,827	-0,00303
853,999	-0,00311
854,172	-0,00298
854,344	-0,00317
854,516	-0,00318
854,688	-0,00291
854,86	-0,00321
855,032	-0,00323
855,204	-0,00324
855,377	-0,00313
855,549	-0,00311
855,721	-0,00297
855,893	-0,00297
856,065	-0,0032
856,237	-0,00358
856,409	-0,00347
856,581	-0,00354
856,753	-0,0031
856,924	-0,00315
857,096	-0,00315
857,268	-0,003
857,44	-0,00293
857,612	-0,00282
857,784	-0,00296
857,956	-0,00265
858,127	-0,0023
858,299	-0,00246
858,471	-0,00248
858,643	-0,00256
858,814	-0,0024
858,986	-0,00236
859,158	-0,00261
859,33	-0,00254
859,501	-0,0028
859,673	-0,00251
859,844	-0,00269
860,016	-0,00283
860,188	-0,00272
860,359	-0,00254
860,531	-0,00255
860,702	-0,00282
860,874	-0,00312
861,045	-0,00319
861,217	-0,00325
861,388	-0,00288
861,56	-0,00303
861,731	-0,00317
861,902	-0,00306
862,074	-0,00293
862,245	-0,00309
862,417	-0,00315
862,588	-0,00306
862,759	-0,00315
862,931	-0,00309
863,102	-0,00298
863,273	-0,00322
863,444	-0,00316
863,616	-0,00305
863,787	-0,00316
863,958	-0,00333
864,129	-0,00341
864,3	-0,00362
864,471	-0,00361
864,642	-0,00314
864,814	-0,0032
864,985	-0,00351
865,156	-0,00358
865,327	-0,00375
865,498	-0,00361
865,669	-0,00346
865,84	-0,00341
866,011	-0,00344
866,182	-0,00315
866,353	-0,00306
866,523	-0,00336
866,694	-0,003
866,865	-0,00286
867,036	-0,00273
867,207	-0,00276
867,378	-0,00306
867,549	-0,00334
867,719	-0,00363
867,89	-0,00378
868,061	-0,00371
868,232	-0,0039
868,402	-0,00404
868,573	-0,00455
868,744	-0,00437
868,914	-0,00447
869,085	-0,00435
869,256	-0,0042
869,426	-0,00405
869,597	-0,00383
869,767	-0,00354
869,938	-0,00362
870,108	-0,0035
870,279	-0,00335
870,449	-0,00339
870,62	-0,00393
870,79	-0,00386
870,961	-0,00355
871,131	-0,00363
871,302	-0,00348
871,472	-0,00339
871,642	-0,00341
871,813	-0,00333
871,983	-0,00335
872,153	-0,00328
872,324	-0,00307
872,494	-0,00291
872,664	-0,00286
872,835	-0,00274
873,005	-0,0024
873,175	-0,00251
873,345	-0,00259
873,515	-0,00272
873,685	-0,00302
873,856	-0,00301
874,026	-0,003
874,196	-0,00292
874,366	-0,00293
874,536	-0,00298
874,706	-0,00356
874,876	-0,00417
875,046	-0,00431
875,216	-0,00437
875,386	-0,004
875,556	-0,00361
875,726	-0,0036
875,896	-0,00358
876,066	-0,00355
876,236	-0,00366
876,405	-0,00374
876,575	-0,00366
876,745	-0,00337
876,915	-0,00305
877,085	-0,00287
877,254	-0,00321
877,424	-0,00345
877,594	-0,00359
877,764	-0,00365
877,933	-0,00396
878,103	-0,00373
878,273	-0,00356
878,442	-0,00336
878,612	-0,00344
878,781	-0,00362
878,951	-0,00386
879,121	-0,00406
879,29	-0,00416
879,46	-0,00401
879,629	-0,00375
879,799	-0,0035
879,968	-0,00315
880,138	-0,00304
880,307	-0,00302
880,476	-0,00257
880,646	-0,00283
880,815	-0,00267
880,985	-0,00242
881,154	-0,00252
881,323	-0,00256
881,493	-0,00278
881,662	-0,00297
881,831	-0,00313
882	-0,00332
882,17	-0,00331
882,339	-0,00378
882,508	-0,00378
882,677	-0,00356
882,846	-0,00322
883,016	-0,003
883,185	-0,00324
883,354	-0,00317
883,523	-0,00297
883,692	-0,00316
883,861	-0,00314
884,03	-0,00357
884,199	-0,00329
884,368	-0,00286
884,537	-0,00304
884,706	-0,00354
884,875	-0,00351
885,044	-0,00318
885,213	-0,00312
885,382	-0,00319
885,55	-0,0031
885,719	-0,00323
885,888	-0,00284
886,057	-0,00317
886,226	-0,00364
886,395	-0,00372
886,563	-0,00351
886,732	-0,00343
886,901	-0,00355
887,069	-0,00378
887,238	-0,00386
887,407	-0,0039
887,575	-0,00364
887,744	-0,00363
887,913	-0,00353
888,081	-0,00339
888,25	-0,00324
888,418	-0,00324
888,587	-0,0035
888,755	-0,00355
888,924	-0,00348
889,092	-0,00343
889,261	-0,00364
889,429	-0,00377
889,598	-0,00365
889,766	-0,00353
889,935	-0,00346
890,103	-0,00396
890,271	-0,00391
890,44	-0,00384
890,608	-0,00395
890,776	-0,00388
890,944	-0,00377
891,113	-0,00374
891,281	-0,00415
891,449	-0,00436
891,617	-0,00463
891,786	-0,00485
891,954	-0,00433
892,122	-0,00412
892,29	-0,00389
892,458	-0,00401
892,626	-0,00399
892,794	-0,00407
892,962	-0,00388
893,13	-0,00338
893,298	-0,0034
893,466	-0,0029
