Data from Chemiepractica_Absorbance__19__11-41-33-085.txt Node

Date: Mon Dec 09 11:41:33 CET 2024
User: r0948668
Spectrometer: USB4F07138
Trigger mode: 4
Integration Time (sec): 6,000000E-3
Scans to average: 20
Electric dark correction enabled: true
Nonlinearity correction enabled: false
Boxcar width: 5
XAxis mode: Wavelengths
Number of Pixels in Spectrum: 3648
>>>>>Begin Spectral Data<<<<<
176,779	-0,04742
176,999	-1,01748
177,218	-0
177,438	-0,99496
177,658	-0,44728
177,878	0,31506
178,097	0,12736
178,317	-0,12162
178,537	0,15459
178,757	0,13723
178,976	-0,05377
179,196	-0,11327
179,416	-0
179,635	0,16908
179,855	0,21203
180,075	0,11796
180,294	0,01777
180,514	0,00862
180,734	0,07352
180,953	0,0514
181,173	0,0607
181,392	0,04147
181,612	0,02444
181,832	0,03037
182,051	0,02985
182,271	0,01636
182,49	0,01695
182,71	0,01781
182,929	0,03701
183,149	0,02321
183,368	0,04046
183,588	0,04202
183,807	0,05302
184,027	0,07429
184,246	0,07843
184,466	0,08007
184,685	0,10354
184,905	0,11216
185,124	0,11926
185,344	0,09938
185,563	0,10584
185,782	0,1029
186,002	0,09882
186,221	0,09151
186,44	0,0855
186,66	0,0731
186,879	0,08428
187,099	0,05425
187,318	0,03693
187,537	0,03777
187,756	0,06441
187,976	0,05567
188,195	0,04777
188,414	0,05389
188,634	0,07023
188,853	0,07227
189,072	0,07827
189,291	0,05804
189,511	0,07775
189,73	0,0969
189,949	0,09797
190,168	0,07795
190,387	0,08363
190,607	0,08324
190,826	0,05681
191,045	0,04588
191,264	0,04454
191,483	0,03623
191,702	0,04241
191,921	0,03428
192,141	0,0318
192,36	0,01602
192,579	0,00905
192,798	0,01095
193,017	0,01134
193,236	0,03902
193,455	0,03798
193,674	0,04111
193,893	0,0515
194,112	0,06698
194,331	0,06433
194,55	0,06567
194,769	0,07495
194,988	0,08076
195,207	0,08402
195,426	0,07284
195,645	0,06594
195,864	0,07087
196,083	0,05627
196,302	0,04458
196,521	0,03905
196,739	0,0408
196,958	0,03723
197,177	0,04229
197,396	0,05556
197,615	0,04916
197,834	0,05114
198,053	0,03911
198,271	0,02681
198,49	0,03702
198,709	0,05714
198,928	0,05757
199,147	0,06322
199,365	0,08183
199,584	0,07934
199,803	0,06793
200,022	0,08018
200,24	0,07486
200,459	0,07891
200,678	0,09932
200,897	0,10879
201,115	0,0923
201,334	0,09057
201,553	0,08015
201,771	0,06152
201,99	0,05374
202,209	0,05705
202,427	0,04674
202,646	0,06412
202,864	0,06311
203,083	0,04834
203,302	0,04567
203,52	0,07049
203,739	0,05648
203,957	0,06937
204,176	0,06717
204,394	0,08503
204,613	0,08695
204,831	0,08506
205,05	0,07494
205,268	0,08374
205,487	0,08589
205,705	0,07545
205,924	0,06175
206,142	0,06516
206,361	0,0711
206,579	0,08391
206,798	0,0812
207,016	0,06695
207,234	0,06862
207,453	0,07192
207,671	0,07353
207,89	0,085
208,108	0,08575
208,326	0,07174
208,545	0,07768
208,763	0,06931
208,981	0,04704
209,2	0,0364
209,418	0,05297
209,636	0,0523
209,855	0,04953
210,073	0,03907
210,291	0,02773
210,509	0,0265
210,728	0,04266
210,946	0,02911
211,164	0,01699
211,382	0,04157
211,6	0,05652
211,819	0,04346
212,037	0,04441
212,255	0,04185
212,473	0,05738
212,691	0,0643
212,909	0,07255
213,128	0,05921
213,346	0,07954
213,564	0,08438
213,782	0,0567
214	0,04625
214,218	0,06398
214,436	0,07034
214,654	0,06764
214,872	0,04893
215,09	0,03604
215,308	0,03314
215,526	0,04043
215,744	0,04261
215,962	0,04344
216,18	0,05356
216,398	0,05723
216,616	0,0547
216,834	0,04788
217,052	0,06506
217,27	0,0606
217,488	0,06499
217,706	0,06903
217,924	0,07094
218,142	0,0606
218,36	0,0676
218,578	0,07298
218,795	0,0646
219,013	0,05341
219,231	0,05276
219,449	0,04563
219,667	0,04871
219,885	0,04606
220,102	0,04783
220,32	0,04771
220,538	0,0516
220,756	0,03869
220,973	0,04849
221,191	0,04872
221,409	0,05711
221,627	0,0595
221,844	0,05381
222,062	0,0585
222,28	0,0607
222,497	0,05377
222,715	0,05879
222,933	0,05401
223,15	0,06061
223,368	0,05805
223,586	0,07427
223,803	0,07631
224,021	0,06915
224,239	0,07705
224,456	0,08222
224,674	0,08115
224,891	0,08547
225,109	0,08097
225,326	0,07347
225,544	0,07271
225,762	0,05459
225,979	0,04499
226,197	0,04648
226,414	0,04321
226,632	0,0329
226,849	0,03068
227,066	0,0303
227,284	0,02518
227,501	0,02387
227,719	0,03703
227,936	0,03957
228,154	0,06152
228,371	0,06002
228,588	0,06152
228,806	0,07013
229,023	0,07972
229,241	0,08673
229,458	0,09968
229,675	0,11086
229,893	0,11264
230,11	0,11214
230,327	0,10252
230,545	0,0938
230,762	0,08337
230,979	0,07536
231,196	0,06492
231,414	0,05668
231,631	0,04124
231,848	0,02306
232,065	0,02395
232,283	0,01838
232,5	0,01727
232,717	0,01241
232,934	0,00491
233,151	0,01913
233,368	0,01682
233,586	0,02314
233,803	0,02826
234,02	0,04193
234,237	0,04663
234,454	0,03698
234,671	0,05256
234,888	0,05388
235,105	0,06766
235,322	0,07845
235,54	0,07035
235,757	0,08684
235,974	0,09562
236,191	0,09415
236,408	0,09128
236,625	0,09497
236,842	0,09072
237,059	0,07945
237,276	0,07708
237,493	0,07931
237,71	0,08719
237,926	0,08269
238,143	0,07268
238,36	0,06749
238,577	0,07233
238,794	0,07395
239,011	0,06639
239,228	0,07445
239,445	0,06709
239,662	0,07426
239,878	0,07377
240,095	0,06809
240,312	0,08032
240,529	0,08371
240,746	0,0818
240,963	0,08531
241,179	0,07989
241,396	0,10006
241,613	0,0901
241,83	0,09826
242,046	0,09038
242,263	0,09552
242,48	0,08822
242,697	0,08456
242,913	0,0777
243,13	0,06943
243,347	0,06643
243,563	0,07369
243,78	0,06381
243,997	0,07051
244,213	0,07323
244,43	0,0859
244,646	0,0782
244,863	0,08886
245,08	0,08313
245,296	0,0853
245,513	0,08576
245,729	0,08641
245,946	0,08188
246,162	0,08606
246,379	0,08792
246,595	0,07704
246,812	0,06872
247,028	0,08386
247,245	0,07862
247,461	0,07981
247,678	0,075
247,894	0,08878
248,111	0,08549
248,327	0,08651
248,544	0,08089
248,76	0,0846
248,976	0,10939
249,193	0,10346
249,409	0,0963
249,626	0,08929
249,842	0,09972
250,058	0,10023
250,275	0,09188
250,491	0,08186
250,707	0,08952
250,924	0,09915
251,14	0,09542
251,356	0,08449
251,572	0,08892
251,789	0,09442
252,005	0,10312
252,221	0,09406
252,437	0,09403
252,654	0,09626
252,87	0,09182
253,086	0,09279
253,302	0,089
253,518	0,096
253,735	0,0932
253,951	0,08985
254,167	0,07553
254,383	0,06511
254,599	0,06635
254,815	0,07325
255,031	0,06514
255,247	0,06883
255,463	0,06078
255,68	0,06977
255,896	0,06799
256,112	0,06641
256,328	0,07473
256,544	0,09163
256,76	0,09827
256,976	0,10223
257,192	0,10081
257,408	0,10463
257,624	0,10859
257,84	0,10945
258,056	0,08942
258,272	0,0837
258,487	0,08431
258,703	0,0729
258,919	0,06022
259,135	0,05019
259,351	0,04395
259,567	0,04399
259,783	0,05053
259,999	0,05202
260,215	0,05715
260,43	0,05348
260,646	0,0626
260,862	0,067
261,078	0,07098
261,294	0,06628
261,509	0,09348
261,725	0,0983
261,941	0,10046
262,157	0,0983
262,372	0,09737
262,588	0,08291
262,804	0,09819
263,019	0,09129
263,235	0,08515
263,451	0,09568
263,667	0,10178
263,882	0,10417
264,098	0,11597
264,313	0,11061
264,529	0,09847
264,745	0,10766
264,96	0,10789
265,176	0,10089
265,391	0,10072
265,607	0,11169
265,823	0,09744
266,038	0,09707
266,254	0,08578
266,469	0,07918
266,685	0,07724
266,9	0,08631
267,116	0,08333
267,331	0,09263
267,547	0,09421
267,762	0,09
267,978	0,08207
268,193	0,0887
268,408	0,09324
268,624	0,09145
268,839	0,0887
269,055	0,09193
269,27	0,08446
269,485	0,08294
269,701	0,07941
269,916	0,08909
270,132	0,09829
270,347	0,10455
270,562	0,10011
270,777	0,10293
270,993	0,11004
271,208	0,11138
271,423	0,10912
271,639	0,11842
271,854	0,12003
272,069	0,12845
272,284	0,11966
272,5	0,11549
272,715	0,10513
272,93	0,1076
273,145	0,09119
273,36	0,0809
273,576	0,08444
273,791	0,08387
274,006	0,08384
274,221	0,0781
274,436	0,07233
274,651	0,0687
274,866	0,06863
275,081	0,08403
275,296	0,0772
275,512	0,08175
275,727	0,09085
275,942	0,08951
276,157	0,0814
276,372	0,08178
276,587	0,08586
276,802	0,09993
277,017	0,09316
277,232	0,09246
277,447	0,07933
277,662	0,07736
277,877	0,07141
278,092	0,06668
278,306	0,06205
278,521	0,07122
278,736	0,0728
278,951	0,07378
279,166	0,05502
279,381	0,0549
279,596	0,05714
279,811	0,0614
280,025	0,05924
280,24	0,05996
280,455	0,06336
280,67	0,0559
280,885	0,05222
281,099	0,04369
281,314	0,03168
281,529	0,04274
281,744	0,06098
281,959	0,05795
282,173	0,0575
282,388	0,06994
282,603	0,07931
282,817	0,08172
283,032	0,08667
283,247	0,08841
283,461	0,09096
283,676	0,09773
283,891	0,09208
284,105	0,08024
284,32	0,0781
284,535	0,07268
284,749	0,07965
284,964	0,09227
285,178	0,08398
285,393	0,10004
285,607	0,09673
285,822	0,10216
286,036	0,1013
286,251	0,10302
286,465	0,10435
286,68	0,10545
286,894	0,10761
287,109	0,09874
287,323	0,08336
287,538	0,08518
287,752	0,0711
287,967	0,07854
288,181	0,07315
288,396	0,07861
288,61	0,08549
288,824	0,09096
289,039	0,08951
289,253	0,09382
289,467	0,10141
289,682	0,10232
289,896	0,09816
290,11	0,09981
290,325	0,09538
290,539	0,09504
290,753	0,09353
290,968	0,07862
291,182	0,0652
291,396	0,06907
291,61	0,07045
291,825	0,05779
292,039	0,0608
292,253	0,06262
292,467	0,05231
292,681	0,0567
292,896	0,05789
293,11	0,04968
293,324	0,05416
293,538	0,06566
293,752	0,06968
293,966	0,06277
294,18	0,0639
294,394	0,04826
294,608	0,0463
294,823	0,0486
295,037	0,04116
295,251	0,04668
295,465	0,05424
295,679	0,05391
295,893	0,05409
296,107	0,03904
296,321	0,04492
296,535	0,04067
296,749	0,05072
296,963	0,05167
297,177	0,04935
297,391	0,05157
297,604	0,04804
297,818	0,0441
298,032	0,03789
298,246	0,02586
298,46	0,03045
298,674	0,03503
298,888	0,04068
299,102	0,04865
299,315	0,05383
299,529	0,06961
299,743	0,07469
299,957	0,07188
300,171	0,07293
300,385	0,08618
300,598	0,09059
300,812	0,0937
301,026	0,08773
301,24	0,09777
301,453	0,08935
301,667	0,08129
301,881	0,08307
302,094	0,07046
302,308	0,06271
302,522	0,07354
302,735	0,0656
302,949	0,07004
303,163	0,07141
303,376	0,06168
303,59	0,05479
303,803	0,04405
304,017	0,04464
304,231	0,03788
304,444	0,05272
304,658	0,06453
304,871	0,05498
305,085	0,05544
305,298	0,05327
305,512	0,05407
305,725	0,06211
305,939	0,06318
306,152	0,06835
306,366	0,05691
306,579	0,05243
306,793	0,04609
307,006	0,04456
307,22	0,03888
307,433	0,03805
307,646	0,0375
307,86	0,03704
308,073	0,03707
308,286	0,03118
308,5	0,02942
308,713	0,03424
308,926	0,04671
309,14	0,04587
309,353	0,04287
309,566	0,04751
309,78	0,04449
309,993	0,04199
310,206	0,04146
310,419	0,04598
310,633	0,04885
310,846	0,06291
311,059	0,06264
311,272	0,04561
311,486	0,04895
311,699	0,05064
311,912	0,054
312,125	0,06397
312,338	0,0599
312,551	0,05521
312,764	0,05288
312,978	0,05933
313,191	0,05212
313,404	0,05401
313,617	0,06184
313,83	0,06243
314,043	0,06873
314,256	0,06197
314,469	0,05498
314,682	0,05438
314,895	0,06107
315,108	0,05907
315,321	0,05473
315,534	0,05797
315,747	0,06339
315,96	0,06572
316,173	0,0596
316,386	0,05417
316,599	0,06016
316,812	0,06453
317,025	0,0763
317,237	0,07193
317,45	0,06671
317,663	0,067
317,876	0,06298
318,089	0,06649
318,302	0,05874
318,515	0,06299
318,727	0,05372
318,94	0,05309
319,153	0,04415
319,366	0,03672
319,578	0,03446
319,791	0,04541
320,004	0,0308
320,217	0,03195
320,429	0,02885
320,642	0,02765
320,855	0,02314
321,067	0,02813
321,28	0,02822
321,493	0,03426
321,705	0,03583
321,918	0,0358
322,131	0,02826
322,343	0,03503
322,556	0,03608
322,768	0,03504
322,981	0,03562
323,194	0,04251
323,406	0,03919
323,619	0,02685
323,831	0,02626
324,044	0,02654
324,256	0,03411
324,469	0,02857
324,681	0,03467
324,894	0,03438
325,106	0,03634
325,319	0,03268
325,531	0,03148
325,743	0,03239
325,956	0,04057
326,168	0,04554
326,381	0,04301
326,593	0,03557
326,805	0,04591
327,018	0,04409
327,23	0,04066
327,442	0,04279
327,655	0,03506
327,867	0,03992
328,079	0,04647
328,292	0,05427
328,504	0,05491
328,716	0,05002
328,928	0,06392
329,141	0,06577
329,353	0,05869
329,565	0,06141
329,777	0,05988
329,99	0,08073
330,202	0,07598
330,414	0,07073
330,626	0,0692
330,838	0,07094
331,05	0,0716
331,263	0,06239
331,475	0,06347
331,687	0,0732
331,899	0,08023
332,111	0,08434
332,323	0,07898
332,535	0,08011
332,747	0,07961
332,959	0,08087
333,171	0,07672
333,383	0,07924
333,595	0,07478
333,807	0,07158
334,019	0,06537
334,231	0,06051
334,443	0,05279
334,655	0,05743
334,867	0,05874
335,079	0,0609
335,291	0,04848
335,503	0,05295
335,714	0,05842
335,926	0,06359
336,138	0,06825
336,35	0,06793
336,562	0,07139
336,774	0,07622
336,986	0,06145
337,197	0,05838
337,409	0,05229
337,621	0,04823
337,833	0,04028
338,044	0,03827
338,256	0,03957
338,468	0,03494
338,68	0,03682
338,891	0,02868
339,103	0,0318
339,315	0,03639
339,526	0,02849
339,738	0,02607
339,95	0,03654
340,161	0,04796
340,373	0,04218
340,585	0,02185
340,796	0,02028
341,008	0,02552
341,219	0,03416
341,431	0,024
341,642	0,02739
341,854	0,03812
342,065	0,05148
342,277	0,05118
342,489	0,04298
342,7	0,05522
342,912	0,06852
343,123	0,06467
343,334	0,06374
343,546	0,04635
343,757	0,05101
343,969	0,04604
344,18	0,04103
344,392	0,02764
344,603	0,0406
344,814	0,04485
345,026	0,04108
345,237	0,03916
345,448	0,0403
345,66	0,03511
345,871	0,04797
346,082	0,04859
346,294	0,0543
346,505	0,05328
346,716	0,06121
346,927	0,04732
347,139	0,0436
347,35	0,04204
347,561	0,04565
347,772	0,04494
347,984	0,05107
348,195	0,0556
348,406	0,05024
348,617	0,05105
348,828	0,05525
349,039	0,05837
349,251	0,05952
349,462	0,06182
349,673	0,0544
349,884	0,05322
350,095	0,05462
350,306	0,05155
350,517	0,0498
350,728	0,05233
350,939	0,04754
351,15	0,04627
351,361	0,04457
351,572	0,049
351,783	0,04883
351,994	0,05202
352,205	0,0505
352,416	0,05246
352,627	0,05984
352,838	0,05842
353,049	0,06256
353,26	0,07005
353,471	0,06553
353,682	0,06115
353,893	0,06648
354,103	0,06334
354,314	0,06262
354,525	0,0639
354,736	0,06372
354,947	0,05677
355,157	0,05142
355,368	0,04839
355,579	0,04278
355,79	0,04653
356,001	0,04719
356,211	0,04095
356,422	0,03222
356,633	0,03864
356,843	0,035
357,054	0,02892
357,265	0,03059
357,476	0,03251
357,686	0,03405
357,897	0,03753
358,107	0,03176
358,318	0,03649
358,529	0,04071
358,739	0,05523
358,95	0,04625
359,16	0,05191
359,371	0,05732
359,582	0,05129
359,792	0,05199
360,003	0,05073
360,213	0,04506
360,424	0,05373
360,634	0,05631
360,845	0,05316
361,055	0,04751
361,266	0,04856
361,476	0,05469
361,686	0,05153
361,897	0,05279
362,107	0,05393
362,318	0,05521
362,528	0,06058
362,738	0,05368
362,949	0,04309
363,159	0,0415
363,369	0,04119
363,58	0,04405
363,79	0,03864
364	0,04069
364,211	0,04145
364,421	0,04104
364,631	0,04576
364,842	0,04379
365,052	0,04468
365,262	0,05251
365,472	0,0531
365,682	0,05778
365,893	0,05713
366,103	0,06036
366,313	0,05846
366,523	0,0639
366,733	0,06363
366,943	0,06261
367,154	0,06452
367,364	0,07397
367,574	0,07577
367,784	0,07899
367,994	0,07765
368,204	0,08176
368,414	0,08122
368,624	0,08706
368,834	0,08356
369,044	0,08198
369,254	0,0822
369,464	0,08075
369,674	0,0706
369,884	0,06585
370,094	0,06271
370,304	0,05556
370,514	0,05359
370,724	0,05052
370,934	0,04522
371,144	0,04047
371,353	0,04195
371,563	0,03755
371,773	0,03536
371,983	0,03952
372,193	0,03845
372,403	0,0405
372,612	0,03767
372,822	0,03652
373,032	0,03737
373,242	0,03557
373,452	0,03668
373,661	0,03926
373,871	0,03465
374,081	0,03624
374,29	0,0379
374,5	0,03274
374,71	0,02819
374,92	0,03345
375,129	0,03427
375,339	0,03224
375,549	0,03148
375,758	0,03472
375,968	0,0301
376,177	0,02864
376,387	0,02628
376,597	0,02588
376,806	0,03186
377,016	0,03531
377,225	0,0333
377,435	0,03463
377,644	0,03369
377,854	0,03953
378,063	0,03971
378,273	0,0421
378,482	0,04609
378,692	0,04841
378,901	0,04732
379,111	0,048
379,32	0,04844
379,529	0,04896
379,739	0,04842
379,948	0,0486
380,158	0,0453
380,367	0,04948
380,576	0,05355
380,786	0,05095
380,995	0,05272
381,204	0,05665
381,414	0,05507
381,623	0,05426
381,832	0,05731
382,041	0,05763
382,251	0,0599
382,46	0,059
382,669	0,05247
382,878	0,04479
383,088	0,04812
383,297	0,04535
383,506	0,04225
383,715	0,03938
383,924	0,03574
384,133	0,03303
384,342	0,03175
384,552	0,02859
384,761	0,03318
384,97	0,03492
385,179	0,04096
385,388	0,04138
385,597	0,03862
385,806	0,03946
386,015	0,04119
386,224	0,04358
386,433	0,04536
386,642	0,04341
386,851	0,04401
387,06	0,04171
387,269	0,0408
387,478	0,03987
387,687	0,03908
387,896	0,04068
388,105	0,03492
388,314	0,03186
388,523	0,02839
388,731	0,02905
388,94	0,02999
389,149	0,03353
389,358	0,03302
389,567	0,03634
389,776	0,03462
389,984	0,03387
390,193	0,03466
390,402	0,03426
390,611	0,0379
390,819	0,03834
391,028	0,0387
391,237	0,03961
391,446	0,03634
391,654	0,03693
391,863	0,03585
392,072	0,0344
392,28	0,03631
392,489	0,03617
392,698	0,03762
392,906	0,03601
393,115	0,03787
393,324	0,03692
393,532	0,03491
393,741	0,03529
393,949	0,03203
394,158	0,03011
394,366	0,02908
394,575	0,02517
394,783	0,02254
394,992	0,02055
395,2	0,02031
395,409	0,02081
395,617	0,01983
395,826	0,01893
396,034	0,01541
396,243	0,01511
396,451	0,01509
396,66	0,01765
396,868	0,01791
397,076	0,01892
397,285	0,01926
397,493	0,01917
397,701	0,01698
397,91	0,01573
398,118	0,01742
398,326	0,02085
398,535	0,02007
398,743	0,02012
398,951	0,01901
399,159	0,0207
399,368	0,02383
399,576	0,0237
399,784	0,02546
399,992	0,02589
400,201	0,02505
400,409	0,02432
400,617	0,02519
400,825	0,02897
401,033	0,02836
401,241	0,03068
401,45	0,03039
401,658	0,02915
401,866	0,03306
402,074	0,03117
402,282	0,03222
402,49	0,03293
402,698	0,03361
402,906	0,03096
403,114	0,02886
403,322	0,02711
403,53	0,02556
403,738	0,02583
403,946	0,02392
404,154	0,02124
404,362	0,02379
404,57	0,02153
404,778	0,02064
404,986	0,02304
405,194	0,02402
405,402	0,02642
405,609	0,02887
405,817	0,02573
406,025	0,02656
406,233	0,0279
406,441	0,03115
406,649	0,02886
406,856	0,03266
407,064	0,03349
407,272	0,02948
407,48	0,03101
407,687	0,03039
407,895	0,02917
408,103	0,03107
408,311	0,03089
408,518	0,02955
408,726	0,0272
408,934	0,02808
409,141	0,02513
409,349	0,02393
409,557	0,02594
409,764	0,02394
409,972	0,02291
410,18	0,02282
410,387	0,02328
410,595	0,02384
410,802	0,02251
411,01	0,02216
411,217	0,02067
411,425	0,0224
411,632	0,02292
411,84	0,0218
412,047	0,02
412,255	0,0174
412,462	0,01942
412,67	0,01822
412,877	0,01662
413,085	0,01649
413,292	0,0176
413,499	0,0183
413,707	0,01786
413,914	0,01781
414,122	0,01658
414,329	0,01791
414,536	0,02
414,744	0,0181
414,951	0,01863
415,158	0,01935
415,366	0,0204
415,573	0,0199
415,78	0,02076
415,987	0,01974
416,195	0,02197
416,402	0,02265
416,609	0,02457
416,816	0,02527
417,023	0,02759
417,231	0,02935
417,438	0,0281
417,645	0,02617
417,852	0,02498
418,059	0,02362
418,266	0,02295
418,473	0,02129
418,68	0,0229
418,888	0,02088
419,095	0,02138
419,302	0,02001
419,509	0,01821
419,716	0,01907
419,923	0,02136
420,13	0,0219
420,337	0,02241
420,544	0,02291
420,751	0,02174
420,958	0,02096
421,165	0,02151
421,371	0,01968
421,578	0,01934
421,785	0,01832
421,992	0,018
422,199	0,01833
422,406	0,01843
422,613	0,01855
422,82	0,01871
423,026	0,02007
423,233	0,01917
423,44	0,01921
423,647	0,01943
423,854	0,01886
424,06	0,01977
424,267	0,01879
424,474	0,01897
424,681	0,01894
424,887	0,01841
425,094	0,01838
425,301	0,01955
425,507	0,01956
425,714	0,01834
425,921	0,01885
426,127	0,01811
426,334	0,01862
426,54	0,01927
426,747	0,01881
426,954	0,01838
427,16	0,01808
427,367	0,01792
427,573	0,01755
427,78	0,01795
427,986	0,01931
428,193	0,01953
428,399	0,021
428,606	0,02105
428,812	0,02184
429,019	0,02113
429,225	0,02209
429,432	0,02454
429,638	0,02505
429,845	0,0245
430,051	0,0243
430,257	0,02345
430,464	0,0236
430,67	0,02232
430,876	0,02216
431,083	0,02235
431,289	0,02392
431,495	0,02317
431,702	0,02161
431,908	0,02085
432,114	0,01902
432,32	0,02005
432,527	0,02011
432,733	0,02056
432,939	0,0203
433,145	0,02028
433,351	0,0206
433,558	0,02105
433,764	0,02176
433,97	0,02082
434,176	0,02098
434,382	0,02277
434,588	0,02121
434,794	0,02057
435,001	0,01984
435,207	0,02075
435,413	0,02152
435,619	0,02126
435,825	0,02017
436,031	0,01955
436,237	0,02101
436,443	0,02179
436,649	0,02157
436,855	0,02335
437,061	0,02466
437,267	0,02436
437,473	0,02437
437,679	0,02349
437,884	0,0226
438,09	0,02249
438,296	0,02144
438,502	0,02064
438,708	0,02064
438,914	0,02063
439,12	0,02012
439,325	0,02015
439,531	0,02091
439,737	0,02028
439,943	0,02062
440,149	0,02121
440,354	0,02122
440,56	0,02206
440,766	0,02279
440,972	0,0232
441,177	0,0236
441,383	0,02401
441,589	0,02466
441,794	0,02523
442	0,02654
442,206	0,0266
442,411	0,02685
442,617	0,02619
442,822	0,0266
443,028	0,0263
443,234	0,02721
443,439	0,02663
443,645	0,02605
443,85	0,02542
444,056	0,02492
444,261	0,02512
444,467	0,02588
444,672	0,02576
444,878	0,02675
445,083	0,02735
445,289	0,02715
445,494	0,02604
445,699	0,02719
445,905	0,02793
446,11	0,02887
446,316	0,02898
446,521	0,02875
446,726	0,02833
446,932	0,02838
447,137	0,0291
447,342	0,02892
447,548	0,02871
447,753	0,02922
447,958	0,02913
448,164	0,02812
448,369	0,02825
448,574	0,02833
448,779	0,0284
448,984	0,0284
449,19	0,02942
449,395	0,02918
449,6	0,02901
449,805	0,03007
450,01	0,02985
450,215	0,02983
450,421	0,0314
450,626	0,03233
450,831	0,03197
451,036	0,03191
451,241	0,03335
451,446	0,03262
451,651	0,03293
451,856	0,03351
452,061	0,03403
452,266	0,0345
452,471	0,03545
452,676	0,03546
452,881	0,03455
453,086	0,03521
453,291	0,03612
453,496	0,03592
453,701	0,03661
453,906	0,03646
454,111	0,03684
454,316	0,03694
454,52	0,03669
454,725	0,03597
454,93	0,0357
455,135	0,03678
455,34	0,03704
455,545	0,03702
455,749	0,0379
455,954	0,03797
456,159	0,03847
456,364	0,03899
456,568	0,03936
456,773	0,04061
456,978	0,04219
457,182	0,04402
457,387	0,04406
457,592	0,04394
457,796	0,0439
458,001	0,04357
458,206	0,04399
458,41	0,04423
458,615	0,04385
458,82	0,0439
459,024	0,04452
459,229	0,04471
459,433	0,04413
459,638	0,04426
459,842	0,04602
460,047	0,04631
460,251	0,04664
460,456	0,04698
460,66	0,04771
460,865	0,0486
461,069	0,04916
461,274	0,04935
461,478	0,04888
461,682	0,04865
461,887	0,04928
462,091	0,04909
462,296	0,05004
462,5	0,05043
462,704	0,05054
462,909	0,04994
463,113	0,04972
463,317	0,04985
463,522	0,05034
463,726	0,05103
463,93	0,05162
464,134	0,05145
464,339	0,05146
464,543	0,05167
464,747	0,05134
464,951	0,05189
465,155	0,05331
465,36	0,05462
465,564	0,05502
465,768	0,05463
465,972	0,0556
466,176	0,0561
466,38	0,05679
466,584	0,05738
466,788	0,05757
466,993	0,05809
467,197	0,05818
467,401	0,05787
467,605	0,05741
467,809	0,05768
468,013	0,0586
468,217	0,05828
468,421	0,05837
468,625	0,05876
468,829	0,05932
469,033	0,05955
469,236	0,06052
469,44	0,06061
469,644	0,06108
469,848	0,06208
470,052	0,0631
470,256	0,06273
470,46	0,06352
470,664	0,06403
470,867	0,06445
471,071	0,06466
471,275	0,06526
471,479	0,06557
471,683	0,06618
471,886	0,06716
472,09	0,0677
472,294	0,06787
472,497	0,06873
472,701	0,0692
472,905	0,06973
473,109	0,07036
473,312	0,07125
473,516	0,0722
473,719	0,07263
473,923	0,0734
474,127	0,07387
474,33	0,07375
474,534	0,07429
474,737	0,07507
474,941	0,07547
475,145	0,076
475,348	0,07613
475,552	0,07631
475,755	0,07651
475,959	0,07714
476,162	0,07824
476,366	0,07891
476,569	0,07976
476,772	0,08055
476,976	0,08141
477,179	0,08221
477,383	0,08312
477,586	0,08399
477,789	0,08482
477,993	0,08576
478,196	0,08642
478,399	0,08686
478,603	0,08736
478,806	0,08809
479,009	0,08829
479,213	0,08846
479,416	0,0889
479,619	0,08951
479,822	0,09031
480,026	0,09087
480,229	0,09142
480,432	0,09221
480,635	0,09285
480,838	0,09373
481,041	0,09438
481,245	0,09521
481,448	0,09577
481,651	0,09665
481,854	0,09747
482,057	0,09795
482,26	0,09863
482,463	0,09939
482,666	0,09993
482,869	0,10084
483,072	0,10145
483,275	0,10199
483,478	0,1025
483,681	0,10358
483,884	0,10409
484,087	0,10489
484,29	0,10564
484,493	0,10655
484,696	0,10712
484,899	0,10831
485,102	0,10881
485,305	0,1094
485,508	0,11044
485,71	0,11142
485,913	0,11213
486,116	0,1129
486,319	0,11357
486,522	0,11449
486,725	0,11537
486,927	0,11647
487,13	0,11718
487,333	0,11831
487,536	0,11911
487,738	0,11998
487,941	0,12078
488,144	0,12194
488,346	0,1229
488,549	0,12358
488,752	0,12452
488,954	0,12529
489,157	0,12574
489,359	0,12624
489,562	0,12669
489,765	0,12751
489,967	0,12844
490,17	0,12961
490,372	0,13008
490,575	0,13078
490,777	0,13174
490,98	0,13251
491,182	0,13336
491,385	0,13439
491,587	0,13557
491,79	0,13663
491,992	0,1378
492,195	0,13873
492,397	0,13957
492,599	0,14044
492,802	0,14152
493,004	0,14289
493,207	0,14362
493,409	0,14465
493,611	0,14584
493,814	0,14668
494,016	0,1476
494,218	0,14827
494,42	0,14924
494,623	0,1501
494,825	0,1512
495,027	0,15189
495,229	0,1524
495,432	0,15346
495,634	0,15444
495,836	0,15531
496,038	0,15615
496,24	0,1572
496,442	0,15843
496,645	0,15923
496,847	0,16031
497,049	0,16125
497,251	0,16262
497,453	0,16379
497,655	0,16503
497,857	0,16604
498,059	0,16732
498,261	0,16858
498,463	0,16991
498,665	0,17109
498,867	0,1724
499,069	0,17333
499,271	0,17446
499,473	0,17565
499,675	0,17697
499,877	0,17808
500,079	0,17923
500,281	0,18021
500,482	0,18151
500,684	0,18255
500,886	0,18361
501,088	0,18461
501,29	0,186
501,492	0,1872
501,693	0,18828
501,895	0,18948
502,097	0,19051
502,299	0,19172
502,5	0,19279
502,702	0,19392
502,904	0,19537
503,106	0,19668
503,307	0,19794
503,509	0,19932
503,711	0,20058
503,912	0,20214
504,114	0,20316
504,315	0,20454
504,517	0,20592
504,719	0,2075
504,92	0,20864
505,122	0,20939
505,323	0,21052
505,525	0,21183
505,726	0,21293
505,928	0,21424
506,129	0,21568
506,331	0,21724
506,532	0,2188
506,734	0,22012
506,935	0,22123
507,137	0,22271
507,338	0,22426
507,539	0,22574
507,741	0,22744
507,942	0,22889
508,143	0,2305
508,345	0,23153
508,546	0,23269
508,747	0,23415
508,949	0,23555
509,15	0,23698
509,351	0,23841
509,553	0,23983
509,754	0,24138
509,955	0,24258
510,156	0,24407
510,357	0,24546
510,559	0,247
510,76	0,24841
510,961	0,24989
511,162	0,25155
511,363	0,25324
511,564	0,25481
511,766	0,2564
511,967	0,25806
512,168	0,25957
512,369	0,26123
512,57	0,26288
512,771	0,26459
512,972	0,26618
513,173	0,26791
513,374	0,26959
513,575	0,27087
513,776	0,27237
513,977	0,27364
514,178	0,27512
514,379	0,2768
514,58	0,27841
514,781	0,2802
514,981	0,28169
515,182	0,28325
515,383	0,28456
515,584	0,28611
515,785	0,28799
515,986	0,28958
516,187	0,29159
516,387	0,293
516,588	0,29493
516,789	0,29667
516,99	0,29827
517,19	0,30003
517,391	0,30179
517,592	0,30363
517,793	0,30523
517,993	0,30701
518,194	0,30883
518,395	0,31044
518,595	0,31245
518,796	0,31411
518,996	0,31529
519,197	0,31666
519,398	0,3183
519,598	0,32028
519,799	0,32178
519,999	0,32333
520,2	0,32506
520,4	0,32666
520,601	0,32867
520,801	0,33037
521,002	0,33164
521,202	0,33369
521,403	0,33557
521,603	0,33735
521,804	0,33873
522,004	0,34057
522,204	0,3424
522,405	0,34408
522,605	0,34567
522,806	0,34722
523,006	0,34885
523,206	0,35067
523,407	0,35242
523,607	0,35421
523,807	0,35585
524,007	0,35764
524,208	0,35926
524,408	0,36089
524,608	0,36249
524,808	0,36411
525,009	0,36592
525,209	0,36734
525,409	0,36932
525,609	0,37097
525,809	0,37253
526,009	0,37394
526,209	0,37545
526,41	0,37702
526,61	0,37909
526,81	0,38086
527,01	0,38271
527,21	0,38407
527,41	0,38571
527,61	0,38678
527,81	0,38818
528,01	0,38974
528,21	0,39165
528,41	0,39331
528,61	0,39496
528,81	0,3962
529,01	0,3974
529,21	0,39889
529,41	0,40028
529,609	0,40158
529,809	0,40332
530,009	0,40518
530,209	0,40679
530,409	0,408
530,609	0,40987
530,808	0,41127
531,008	0,41255
531,208	0,41425
531,408	0,41584
531,608	0,41741
531,807	0,41879
532,007	0,42023
532,207	0,42138
532,406	0,42274
532,606	0,42429
532,806	0,42543
533,005	0,4269
533,205	0,42821
533,405	0,42938
533,604	0,43075
533,804	0,43215
534,003	0,43375
534,203	0,43522
534,403	0,4361
534,602	0,43729
534,802	0,43841
535,001	0,43973
535,201	0,44091
535,4	0,44242
535,6	0,44374
535,799	0,44486
535,998	0,44602
536,198	0,44713
536,397	0,44828
536,597	0,44973
536,796	0,45103
536,995	0,45264
537,195	0,45391
537,394	0,45506
537,594	0,45607
537,793	0,45713
537,992	0,4585
538,191	0,4597
538,391	0,46116
538,59	0,46196
538,789	0,4633
538,988	0,46409
539,188	0,46506
539,387	0,46607
539,586	0,46716
539,785	0,46837
539,984	0,46976
540,184	0,47094
540,383	0,47197
540,582	0,47285
540,781	0,47445
540,98	0,47575
541,179	0,47716
541,378	0,47808
541,577	0,47902
541,776	0,48015
541,975	0,48108
542,174	0,48169
542,373	0,48224
542,572	0,48325
542,771	0,48427
542,97	0,48506
543,169	0,4857
543,368	0,4865
543,567	0,48728
543,766	0,48814
543,965	0,48876
544,164	0,48982
544,362	0,49105
544,561	0,49223
544,76	0,49305
544,959	0,49418
545,158	0,49506
545,356	0,49562
545,555	0,49656
545,754	0,49741
545,953	0,49811
546,151	0,49879
546,35	0,49914
546,549	0,49936
546,748	0,49969
546,946	0,50036
547,145	0,50071
547,344	0,50108
547,542	0,50189
547,741	0,50241
547,939	0,50274
548,138	0,50319
548,337	0,50382
548,535	0,50435
548,734	0,50512
548,932	0,5055
549,131	0,50569
549,329	0,5062
549,528	0,50687
549,726	0,50711
549,925	0,5075
550,123	0,50807
550,322	0,50873
550,52	0,50934
550,718	0,50996
550,917	0,51036
551,115	0,51104
551,313	0,51178
551,512	0,51227
551,71	0,51263
551,908	0,51343
552,107	0,51389
552,305	0,51437
552,503	0,51489
552,702	0,51536
552,9	0,51575
553,098	0,51654
553,296	0,51695
553,495	0,51747
553,693	0,51803
553,891	0,5186
554,089	0,51908
554,287	0,5197
554,485	0,52038
554,683	0,52067
554,882	0,52115
555,08	0,52182
555,278	0,52212
555,476	0,52274
555,674	0,52335
555,872	0,52376
556,07	0,52434
556,268	0,52485
556,466	0,5254
556,664	0,52583
556,862	0,52662
557,06	0,52738
557,258	0,52816
557,456	0,52906
557,654	0,52974
557,851	0,53042
558,049	0,53101
558,247	0,53188
558,445	0,53254
558,643	0,53336
558,841	0,53407
559,039	0,53468
559,236	0,53529
559,434	0,53585
559,632	0,5366
559,83	0,53737
560,027	0,53809
560,225	0,53882
560,423	0,53942
560,62	0,54043
560,818	0,5409
561,016	0,54187
561,213	0,54293
561,411	0,54365
561,609	0,54446
561,806	0,54514
562,004	0,54584
562,202	0,54658
562,399	0,54756
562,597	0,54831
562,794	0,54903
562,992	0,54974
563,189	0,55072
563,387	0,55164
563,584	0,55295
563,782	0,55385
563,979	0,55474
564,177	0,55581
564,374	0,55708
564,571	0,55832
564,769	0,55954
564,966	0,56046
565,164	0,56188
565,361	0,56272
565,558	0,56387
565,756	0,56464
565,953	0,56569
566,15	0,56696
566,347	0,56807
566,545	0,56907
566,742	0,57017
566,939	0,5714
567,136	0,57264
567,334	0,57403
567,531	0,57542
567,728	0,57643
567,925	0,57786
568,122	0,57921
568,319	0,58042
568,517	0,5817
568,714	0,58279
568,911	0,584
569,108	0,58529
569,305	0,58663
569,502	0,58779
569,699	0,58902
569,896	0,59038
570,093	0,59176
570,29	0,59328
570,487	0,59455
570,684	0,59647
570,881	0,59832
571,078	0,59988
571,275	0,60133
571,472	0,60301
571,669	0,60454
571,866	0,60621
572,062	0,6077
572,259	0,60923
572,456	0,61075
572,653	0,61258
572,85	0,61372
573,047	0,61513
573,243	0,61667
573,44	0,61792
573,637	0,61929
573,834	0,62098
574,03	0,62246
574,227	0,62419
574,424	0,62568
574,62	0,62705
574,817	0,62864
575,014	0,63058
575,21	0,63231
575,407	0,63375
575,604	0,6358
575,8	0,63773
575,997	0,63936
576,193	0,64098
576,39	0,64283
576,586	0,64476
576,783	0,64664
576,979	0,64813
577,176	0,64952
577,372	0,6509
577,569	0,65295
577,765	0,65453
577,962	0,65632
578,158	0,65804
578,355	0,65993
578,551	0,66128
578,747	0,66286
578,944	0,66497
579,14	0,66706
579,336	0,66851
579,533	0,67028
579,729	0,67166
579,925	0,67316
580,122	0,67452
580,318	0,67593
580,514	0,67744
580,71	0,6791
580,906	0,68062
581,103	0,68196
581,299	0,68318
581,495	0,68483
581,691	0,68635
581,887	0,68799
582,084	0,6896
582,28	0,69116
582,476	0,69245
582,672	0,69378
582,868	0,69559
583,064	0,69693
583,26	0,69792
583,456	0,69901
583,652	0,7002
583,848	0,7017
584,044	0,70259
584,24	0,7034
584,436	0,70445
584,632	0,70556
584,828	0,70658
585,024	0,70695
585,22	0,70774
585,416	0,70867
585,611	0,70944
585,807	0,71043
586,003	0,71091
586,199	0,71168
586,395	0,7126
586,591	0,71288
586,786	0,71357
586,982	0,7143
587,178	0,71491
587,374	0,7155
587,569	0,71604
587,765	0,7164
587,961	0,71671
588,156	0,71693
588,352	0,71716
588,548	0,71731
588,743	0,71773
588,939	0,71767
589,135	0,71774
589,33	0,71757
589,526	0,71758
589,721	0,71735
589,917	0,71745
590,112	0,71715
590,308	0,71679
590,503	0,71657
590,699	0,71603
590,894	0,71557
591,09	0,7153
591,285	0,71467
591,481	0,71444
591,676	0,71391
591,872	0,71312
592,067	0,71214
592,262	0,71138
592,458	0,71057
592,653	0,70952
592,848	0,70888
593,044	0,70795
593,239	0,70684
593,434	0,70561
593,629	0,70408
593,825	0,70239
594,02	0,70095
594,215	0,69971
594,41	0,69802
594,606	0,69632
594,801	0,69472
594,996	0,69305
595,191	0,69141
595,386	0,68947
595,581	0,68748
595,777	0,68575
595,972	0,68396
596,167	0,68219
596,362	0,67998
596,557	0,6782
596,752	0,67621
596,947	0,6743
597,142	0,67204
597,337	0,66967
597,532	0,66766
597,727	0,66549
597,922	0,66284
598,117	0,66033
598,312	0,65765
598,507	0,65529
598,701	0,65243
598,896	0,64974
599,091	0,64654
599,286	0,64373
599,481	0,64071
599,676	0,63763
599,87	0,63463
600,065	0,63178
600,26	0,62884
600,455	0,62574
600,65	0,62237
600,844	0,61923
601,039	0,61595
601,234	0,61297
601,428	0,60945
601,623	0,60615
601,818	0,60269
602,012	0,59919
602,207	0,59583
602,402	0,59245
602,596	0,58878
602,791	0,58532
602,985	0,58171
603,18	0,57806
603,374	0,57417
603,569	0,57051
603,763	0,5668
603,958	0,56319
604,152	0,55961
604,347	0,55566
604,541	0,55187
604,736	0,54806
604,93	0,54426
605,125	0,54021
605,319	0,53645
605,513	0,53253
605,708	0,5288
605,902	0,52463
606,096	0,52068
606,291	0,51658
606,485	0,51261
606,679	0,50885
606,874	0,50494
607,068	0,50104
607,262	0,49735
607,456	0,49342
607,65	0,48951
607,845	0,48543
608,039	0,48166
608,233	0,47757
608,427	0,47345
608,621	0,46951
608,815	0,46534
609,01	0,46154
609,204	0,45752
609,398	0,45359
609,592	0,44964
609,786	0,44579
609,98	0,442
610,174	0,43805
610,368	0,43418
610,562	0,43047
610,756	0,42669
610,95	0,42273
611,144	0,41885
611,338	0,41489
611,532	0,41082
611,726	0,40678
611,919	0,4027
612,113	0,39874
612,307	0,39497
612,501	0,39096
612,695	0,38702
612,889	0,38305
613,082	0,37907
613,276	0,37512
613,47	0,37144
613,664	0,36761
613,857	0,36368
614,051	0,35983
614,245	0,35598
614,439	0,35202
614,632	0,34828
614,826	0,34446
615,02	0,34058
615,213	0,33701
615,407	0,33341
615,6	0,32956
615,794	0,32593
615,988	0,32237
616,181	0,31887
616,375	0,3154
616,568	0,31179
616,762	0,30834
616,955	0,30486
617,149	0,30156
617,342	0,29796
617,536	0,29444
617,729	0,29112
617,923	0,28781
618,116	0,28453
618,309	0,28109
618,503	0,27773
618,696	0,27459
618,889	0,2714
619,083	0,26807
619,276	0,26477
619,469	0,26163
619,663	0,25851
619,856	0,25536
620,049	0,25231
620,242	0,24932
620,436	0,24633
620,629	0,24339
620,822	0,24039
621,015	0,23728
621,209	0,2345
621,402	0,23162
621,595	0,22871
621,788	0,22592
621,981	0,22302
622,174	0,22008
622,367	0,2172
622,56	0,21433
622,753	0,21147
622,946	0,20872
623,139	0,20611
623,332	0,20346
623,525	0,20072
623,718	0,19806
623,911	0,19547
624,104	0,19294
624,297	0,19045
624,49	0,18797
624,683	0,1856
624,876	0,1832
625,069	0,18071
625,262	0,17832
625,454	0,17592
625,647	0,17372
625,84	0,17134
626,033	0,16905
626,226	0,1667
626,418	0,16442
626,611	0,16231
626,804	0,16006
626,997	0,15791
627,189	0,15581
627,382	0,15362
627,575	0,15155
627,767	0,14953
627,96	0,14762
628,153	0,14544
628,345	0,1436
628,538	0,14164
628,731	0,13958
628,923	0,13771
629,116	0,13585
629,308	0,13398
629,501	0,13214
629,693	0,13032
629,886	0,1284
630,078	0,12656
630,271	0,12495
630,463	0,12308
630,656	0,12142
630,848	0,11973
631,04	0,11809
631,233	0,11636
631,425	0,11471
631,617	0,11313
631,81	0,11144
632,002	0,10993
632,194	0,1084
632,387	0,10678
632,579	0,1053
632,771	0,10369
632,964	0,10223
633,156	0,10069
633,348	0,09931
633,54	0,09794
633,732	0,09638
633,925	0,09507
634,117	0,09383
634,309	0,09243
634,501	0,09113
634,693	0,08975
634,885	0,08841
635,077	0,0871
635,269	0,08584
635,462	0,08448
635,654	0,08323
635,846	0,0822
636,038	0,08085
636,23	0,0795
636,422	0,07839
636,614	0,07711
636,806	0,07605
636,997	0,07502
637,189	0,07392
637,381	0,07281
637,573	0,07182
637,765	0,07071
637,957	0,0695
638,149	0,06863
638,341	0,06768
638,532	0,06658
638,724	0,06572
638,916	0,06486
639,108	0,06378
639,299	0,06292
639,491	0,0619
639,683	0,06105
639,875	0,06029
640,066	0,05949
640,258	0,05846
640,45	0,05755
640,641	0,05682
640,833	0,05594
641,025	0,05507
641,216	0,05431
641,408	0,05348
641,599	0,05276
641,791	0,05198
641,982	0,05112
642,174	0,05037
642,366	0,04969
642,557	0,04886
642,748	0,048
642,94	0,04729
643,131	0,04643
643,323	0,04575
643,514	0,04507
643,706	0,04446
643,897	0,04377
644,088	0,04315
644,28	0,04251
644,471	0,04191
644,662	0,04139
644,854	0,04088
645,045	0,04035
645,236	0,03975
645,428	0,03914
645,619	0,03842
645,81	0,03783
646,001	0,03719
646,193	0,03664
646,384	0,03606
646,575	0,03544
646,766	0,03493
646,957	0,03435
647,148	0,03381
647,339	0,03338
647,531	0,03296
647,722	0,03249
647,913	0,03198
648,104	0,0316
648,295	0,03101
648,486	0,03052
648,677	0,02999
648,868	0,02952
649,059	0,0291
649,25	0,02862
649,441	0,0282
649,632	0,02754
649,823	0,02718
650,013	0,02677
650,204	0,02622
650,395	0,02584
650,586	0,02552
650,777	0,02522
650,968	0,02489
651,159	0,02452
651,349	0,02408
651,54	0,02369
651,731	0,02343
651,922	0,02311
652,112	0,02277
652,303	0,0225
652,494	0,02223
652,684	0,0219
652,875	0,02164
653,066	0,02128
653,256	0,02099
653,447	0,02065
653,638	0,02039
653,828	0,02013
654,019	0,01994
654,209	0,01964
654,4	0,01934
654,59	0,01906
654,781	0,01884
654,972	0,01849
655,162	0,01828
655,352	0,01794
655,543	0,01774
655,733	0,0175
655,924	0,01735
656,114	0,01689
656,305	0,01662
656,495	0,01641
656,685	0,01621
656,876	0,01595
657,066	0,01574
657,256	0,01548
657,447	0,01538
657,637	0,01518
657,827	0,01499
658,017	0,01471
658,208	0,01453
658,398	0,01427
658,588	0,01408
658,778	0,01386
658,968	0,01361
659,159	0,01342
659,349	0,0132
659,539	0,01289
659,729	0,01281
659,919	0,01271
660,109	0,01255
660,299	0,01249
660,489	0,01249
660,679	0,01229
660,869	0,01208
661,059	0,01196
661,249	0,01184
661,439	0,01169
661,629	0,01153
661,819	0,0113
662,009	0,01102
662,199	0,01083
662,389	0,01053
662,579	0,01031
662,769	0,0102
662,959	0,01009
663,149	0,00995
663,338	0,00975
663,528	0,00971
663,718	0,00957
663,908	0,00932
664,097	0,00916
664,287	0,00899
664,477	0,00894
664,667	0,00879
664,856	0,00863
665,046	0,00851
665,236	0,00836
665,425	0,00835
665,615	0,00825
665,805	0,00821
665,994	0,00822
666,184	0,00821
666,373	0,00818
666,563	0,00816
666,753	0,00804
666,942	0,00788
667,132	0,00765
667,321	0,00748
667,511	0,00732
667,7	0,00713
667,889	0,00694
668,079	0,0068
668,268	0,00665
668,458	0,00648
668,647	0,00638
668,836	0,00631
669,026	0,00626
669,215	0,00625
669,404	0,00629
669,594	0,0062
669,783	0,00614
669,972	0,00613
670,162	0,00609
670,351	0,00592
670,54	0,00581
670,729	0,00565
670,919	0,00564
671,108	0,00564
671,297	0,00562
671,486	0,00554
671,675	0,00546
671,864	0,00538
672,053	0,0053
672,243	0,00528
672,432	0,00527
672,621	0,00529
672,81	0,00528
672,999	0,00512
673,188	0,00513
673,377	0,00497
673,566	0,00486
673,755	0,00481
673,944	0,00467
674,133	0,00456
674,322	0,00456
674,51	0,0046
674,699	0,0045
674,888	0,00434
675,077	0,00429
675,266	0,00412
675,455	0,00413
675,644	0,00409
675,832	0,00397
676,021	0,00399
676,21	0,00405
676,399	0,00384
676,587	0,0036
676,776	0,00356
676,965	0,00349
677,153	0,00348
677,342	0,00335
677,531	0,0033
677,719	0,0032
677,908	0,0032
678,097	0,0031
678,285	0,00293
678,474	0,00295
678,662	0,00307
678,851	0,00296
679,039	0,003
679,228	0,00297
679,416	0,00303
679,605	0,00295
679,793	0,00298
679,982	0,00297
680,17	0,00296
680,359	0,00297
680,547	0,00293
680,736	0,00284
680,924	0,0029
681,112	0,0028
681,301	0,00287
681,489	0,00287
681,677	0,00287
681,866	0,00274
682,054	0,00267
682,242	0,00267
682,43	0,00273
682,619	0,00265
682,807	0,00257
682,995	0,00239
683,183	0,00237
683,371	0,00234
683,559	0,00225
683,748	0,00222
683,936	0,00225
684,124	0,00223
684,312	0,00213
684,5	0,00198
684,688	0,00199
684,876	0,00201
685,064	0,00199
685,252	0,00201
685,44	0,00185
685,628	0,00186
685,816	0,00191
686,004	0,00183
686,192	0,00172
686,38	0,00172
686,568	0,00175
686,756	0,00166
686,944	0,00157
687,131	0,00161
687,319	0,00158
687,507	0,00155
687,695	0,00141
687,883	0,00125
688,07	0,00127
688,258	0,0013
688,446	0,00123
688,634	0,00128
688,821	0,00127
689,009	0,00138
689,197	0,00143
689,384	0,00142
689,572	0,00142
689,76	0,00146
689,947	0,00147
690,135	0,00147
690,323	0,00152
690,51	0,00151
690,698	0,00143
690,885	0,00149
691,073	0,00139
691,26	0,00129
691,448	0,00127
691,635	0,00126
691,823	0,0012
692,01	0,00118
692,197	0,00105
692,385	0,00101
692,572	0,00108
692,76	0,00106
692,947	0,00099
693,134	0,00108
693,322	0,00097
693,509	0,00085
693,696	0,00074
693,884	0,00073
694,071	0,00071
694,258	0,00082
694,445	0,00078
694,633	0,00072
694,82	0,00063
695,007	0,0006
695,194	0,00056
695,381	0,00072
695,568	0,00072
695,756	0,00082
695,943	0,00082
696,13	0,00078
696,317	0,00074
696,504	0,00074
696,691	0,00072
696,878	0,00073
697,065	0,00069
697,252	0,00069
697,439	0,00066
697,626	0,00069
697,813	0,00065
698	0,00058
698,187	0,00061
698,374	0,00056
698,561	0,00052
698,747	0,00053
698,934	0,00059
699,121	0,00059
699,308	0,00052
699,495	0,00054
699,682	0,00052
699,868	0,00045
700,055	0,00042
700,242	0,00035
700,429	0,0003
700,615	0,00024
700,802	0,00018
700,989	0,00012
701,175	0,00007
701,362	0,00004
701,549	-0,00006
701,735	-0,00007
701,922	-0,00008
702,108	0,00004
702,295	0,00008
702,482	0,00005
702,668	0,00022
702,855	0,00015
703,041	0,0002
703,228	0,0002
703,414	0,0002
703,601	0,00019
703,787	0,00017
703,973	0,00016
704,16	-0,00003
704,346	-0,00008
704,533	-0,00004
704,719	-0,00021
704,905	-0,00022
705,092	-0,0003
705,278	-0,0003
705,464	-0,00028
705,65	-0,00026
705,837	-0,00027
706,023	-0,00024
706,209	-0,00013
706,395	-0,00008
706,582	-0,0001
706,768	-0,00011
706,954	-0
707,14	-0,00001
707,326	-0,00008
707,512	-0,00011
707,698	-0,0001
707,885	-0,00014
708,071	-0,00013
708,257	-0,00014
708,443	-0,00017
708,629	-0,00013
708,815	-0,00015
709,001	-0,00024
709,187	-0,00029
709,373	-0,00014
709,559	-0,00017
709,745	-0,00023
709,93	-0,00031
710,116	-0,00028
710,302	-0,00022
710,488	-0,00024
710,674	-0,00029
710,86	-0,00029
711,046	-0,0002
711,231	-0,00016
711,417	-0,00019
711,603	-0,00023
711,789	-0,00028
711,974	-0,0002
712,16	-0,00036
712,346	-0,00052
712,532	-0,00057
712,717	-0,00063
712,903	-0,00065
713,089	-0,00073
713,274	-0,0007
713,46	-0,0008
713,645	-0,00078
713,831	-0,00075
714,016	-0,00071
714,202	-0,00059
714,388	-0,00041
714,573	-0,00036
714,759	-0,00034
714,944	-0,0004
715,129	-0,0004
715,315	-0,00045
715,5	-0,0005
715,686	-0,00053
715,871	-0,0004
716,057	-0,00046
716,242	-0,00042
716,427	-0,00056
716,613	-0,00058
716,798	-0,0006
716,983	-0,00055
717,168	-0,00048
717,354	-0,00036
717,539	-0,00027
717,724	-0,00018
717,909	-0,00031
718,095	-0,0002
718,28	-0,00032
718,465	-0,00028
718,65	-0,00028
718,835	-0,00035
719,02	-0,00031
719,206	-0,00039
719,391	-0,0005
719,576	-0,00063
719,761	-0,00072
719,946	-0,00071
720,131	-0,00087
720,316	-0,00077
720,501	-0,00085
720,686	-0,00084
720,871	-0,00072
721,056	-0,00077
721,241	-0,00083
721,426	-0,00084
721,61	-0,00074
721,795	-0,00075
721,98	-0,0007
722,165	-0,00056
722,35	-0,00049
722,535	-0,00043
722,719	-0,00046
722,904	-0,00043
723,089	-0,0005
723,274	-0,00052
723,458	-0,00057
723,643	-0,00056
723,828	-0,00053
724,013	-0,00067
724,197	-0,0008
724,382	-0,00091
724,567	-0,00097
724,751	-0,001
724,936	-0,00105
725,12	-0,00101
725,305	-0,0009
725,489	-0,00082
725,674	-0,00086
725,859	-0,00084
726,043	-0,00074
726,228	-0,0007
726,412	-0,00077
726,596	-0,00083
726,781	-0,00077
726,965	-0,00076
727,15	-0,00065
727,334	-0,00074
727,518	-0,00087
727,703	-0,00083
727,887	-0,00087
728,072	-0,00087
728,256	-0,00093
728,44	-0,00088
728,624	-0,00076
728,809	-0,00092
728,993	-0,0009
729,177	-0,00096
729,361	-0,00086
729,546	-0,00084
729,73	-0,00084
729,914	-0,00103
730,098	-0,00108
730,282	-0,00107
730,466	-0,00113
730,65	-0,00115
730,834	-0,00103
731,019	-0,00102
731,203	-0,00106
731,387	-0,00115
731,571	-0,00128
731,755	-0,00134
731,939	-0,00124
732,123	-0,00128
732,306	-0,00125
732,49	-0,00121
732,674	-0,00121
732,858	-0,00123
733,042	-0,0013
733,226	-0,00126
733,41	-0,00126
733,594	-0,00115
733,778	-0,0012
733,961	-0,00114
734,145	-0,00109
734,329	-0,00103
734,513	-0,00096
734,696	-0,0009
734,88	-0,00095
735,064	-0,00098
735,247	-0,0011
735,431	-0,00108
735,615	-0,00109
735,798	-0,00097
735,982	-0,00088
736,166	-0,00082
736,349	-0,00085
736,533	-0,00093
736,716	-0,001
736,9	-0,00098
737,083	-0,00094
737,267	-0,00094
737,45	-0,00104
737,634	-0,001
737,817	-0,00104
738,001	-0,00119
738,184	-0,00131
738,368	-0,0013
738,551	-0,0014
738,734	-0,00144
738,918	-0,00143
739,101	-0,00139
739,284	-0,0014
739,468	-0,00141
739,651	-0,00135
739,834	-0,00139
740,018	-0,00146
740,201	-0,00137
740,384	-0,00149
740,567	-0,00138
740,75	-0,00132
740,934	-0,00135
741,117	-0,00145
741,3	-0,00137
741,483	-0,00129
741,666	-0,00146
741,849	-0,00148
742,032	-0,00139
742,215	-0,00146
742,399	-0,00132
742,582	-0,00144
742,765	-0,00143
742,948	-0,00142
743,131	-0,0014
743,314	-0,00148
743,496	-0,0016
743,679	-0,00153
743,862	-0,00138
744,045	-0,00134
744,228	-0,00133
744,411	-0,00145
744,594	-0,00141
744,777	-0,00142
744,959	-0,00141
745,142	-0,00135
745,325	-0,00122
745,508	-0,00116
745,691	-0,001
745,873	-0,00122
746,056	-0,00127
746,239	-0,00134
746,421	-0,00124
746,604	-0,00127
746,787	-0,0013
746,969	-0,00129
747,152	-0,0015
747,335	-0,00167
747,517	-0,00161
747,7	-0,00172
747,882	-0,00166
748,065	-0,0017
748,247	-0,0016
748,43	-0,00174
748,612	-0,00169
748,795	-0,00178
748,977	-0,00186
749,16	-0,00177
749,342	-0,00168
749,524	-0,00168
749,707	-0,00169
749,889	-0,0016
750,072	-0,00163
750,254	-0,00173
750,436	-0,0016
750,619	-0,00156
750,801	-0,00154
750,983	-0,00152
751,165	-0,00151
751,348	-0,0015
751,53	-0,00162
751,712	-0,00168
751,894	-0,00175
752,076	-0,00153
752,259	-0,00142
752,441	-0,00149
752,623	-0,00154
752,805	-0,00155
752,987	-0,00149
753,169	-0,0014
753,351	-0,00151
753,533	-0,00133
753,715	-0,00128
753,897	-0,00133
754,079	-0,00142
754,261	-0,00158
754,443	-0,00157
754,625	-0,00162
754,807	-0,00159
754,989	-0,00154
755,171	-0,00164
755,353	-0,00153
755,534	-0,00172
755,716	-0,0017
755,898	-0,0017
756,08	-0,00172
756,262	-0,00162
756,443	-0,00173
756,625	-0,00171
756,807	-0,00177
756,989	-0,00191
757,17	-0,00188
757,352	-0,0019
757,534	-0,00176
757,715	-0,00189
757,897	-0,00184
758,079	-0,00192
758,26	-0,00193
758,442	-0,00181
758,623	-0,00187
758,805	-0,00182
758,987	-0,00186
759,168	-0,00197
759,35	-0,00206
759,531	-0,002
759,713	-0,00196
759,894	-0,00201
760,075	-0,00192
760,257	-0,00205
760,438	-0,00215
760,62	-0,00203
760,801	-0,00202
760,982	-0,00195
761,164	-0,00184
761,345	-0,00178
761,526	-0,00186
761,708	-0,00189
761,889	-0,00192
762,07	-0,00202
762,251	-0,00182
762,433	-0,00175
762,614	-0,00192
762,795	-0,00193
762,976	-0,00188
763,157	-0,00184
763,338	-0,00192
763,52	-0,00194
763,701	-0,0019
763,882	-0,00191
764,063	-0,00188
764,244	-0,00197
764,425	-0,00196
764,606	-0,00189
764,787	-0,00191
764,968	-0,00196
765,149	-0,00208
765,33	-0,00202
765,511	-0,00202
765,692	-0,00207
765,873	-0,002
766,053	-0,00205
766,234	-0,0021
766,415	-0,00221
766,596	-0,00229
766,777	-0,00234
766,958	-0,00238
767,138	-0,00226
767,319	-0,00235
767,5	-0,00235
767,681	-0,00239
767,861	-0,00232
768,042	-0,00236
768,223	-0,00232
768,403	-0,00226
768,584	-0,00213
768,765	-0,00212
768,945	-0,00212
769,126	-0,00221
769,307	-0,00215
769,487	-0,00217
769,668	-0,00208
769,848	-0,00221
770,029	-0,00212
770,209	-0,00217
770,39	-0,00214
770,57	-0,00217
770,751	-0,00215
770,931	-0,00217
771,111	-0,00226
771,292	-0,00224
771,472	-0,00228
771,653	-0,00228
771,833	-0,00226
772,013	-0,00228
772,194	-0,00212
772,374	-0,00224
772,554	-0,00228
772,734	-0,00228
772,915	-0,00216
773,095	-0,00202
773,275	-0,00206
773,455	-0,00195
773,635	-0,00204
773,816	-0,00199
773,996	-0,00194
774,176	-0,00191
774,356	-0,0018
774,536	-0,00186
774,716	-0,00183
774,896	-0,00197
775,076	-0,00211
775,256	-0,00204
775,436	-0,00203
775,616	-0,00191
775,796	-0,00187
775,976	-0,00186
776,156	-0,00195
776,336	-0,00199
776,516	-0,00193
776,696	-0,00198
776,876	-0,00187
777,056	-0,00185
777,235	-0,00193
777,415	-0,002
777,595	-0,00212
777,775	-0,00226
777,955	-0,00251
778,134	-0,0026
778,314	-0,00252
778,494	-0,00258
778,674	-0,00256
778,853	-0,0027
779,033	-0,00267
779,213	-0,00265
779,392	-0,0027
779,572	-0,00269
779,751	-0,00276
779,931	-0,00256
780,111	-0,00255
780,29	-0,00267
780,47	-0,00266
780,649	-0,0027
780,829	-0,00259
781,008	-0,00254
781,188	-0,00247
781,367	-0,0023
781,546	-0,00224
781,726	-0,00211
781,905	-0,00214
782,085	-0,00211
782,264	-0,00201
782,443	-0,00184
782,623	-0,00174
782,802	-0,00173
782,981	-0,0017
783,161	-0,00175
783,34	-0,00181
783,519	-0,00179
783,698	-0,00173
783,878	-0,00171
784,057	-0,00175
784,236	-0,00174
784,415	-0,00176
784,594	-0,00179
784,773	-0,00184
784,952	-0,00177
785,132	-0,00186
785,311	-0,00184
785,49	-0,00192
785,669	-0,00205
785,848	-0,00205
786,027	-0,00203
786,206	-0,00208
786,385	-0,00213
786,564	-0,00217
786,743	-0,00217
786,922	-0,00223
787,1	-0,00214
787,279	-0,00229
787,458	-0,00221
787,637	-0,00208
787,816	-0,00205
787,995	-0,0021
788,174	-0,00211
788,352	-0,00213
788,531	-0,00204
788,71	-0,00193
788,889	-0,00195
789,067	-0,00195
789,246	-0,00192
789,425	-0,00202
789,603	-0,00206
789,782	-0,00218
789,961	-0,00211
790,139	-0,00204
790,318	-0,00201
790,496	-0,00209
790,675	-0,00209
790,853	-0,00217
791,032	-0,00227
791,211	-0,0022
791,389	-0,00212
791,568	-0,00208
791,746	-0,00202
791,924	-0,00199
792,103	-0,00206
792,281	-0,00202
792,46	-0,00199
792,638	-0,00213
792,816	-0,00208
792,995	-0,00195
793,173	-0,00203
793,351	-0,00209
793,53	-0,00217
793,708	-0,00219
793,886	-0,00219
794,064	-0,00222
794,243	-0,00221
794,421	-0,00219
794,599	-0,00213
794,777	-0,00215
794,955	-0,00225
795,133	-0,00222
795,312	-0,00226
795,49	-0,00219
795,668	-0,00216
795,846	-0,00226
796,024	-0,00219
796,202	-0,00233
796,38	-0,00238
796,558	-0,00248
796,736	-0,00254
796,914	-0,00248
797,092	-0,0026
797,27	-0,00258
797,448	-0,0027
797,626	-0,00273
797,803	-0,00278
797,981	-0,00285
798,159	-0,0028
798,337	-0,00276
798,515	-0,0027
798,693	-0,00266
798,87	-0,00269
799,048	-0,00263
799,226	-0,00255
799,404	-0,0026
799,581	-0,00264
799,759	-0,00262
799,937	-0,00264
800,114	-0,00265
800,292	-0,00275
800,469	-0,00272
800,647	-0,00273
800,825	-0,00274
801,002	-0,00281
801,18	-0,0029
801,357	-0,00274
801,535	-0,00266
801,712	-0,00277
801,89	-0,00279
802,067	-0,00289
802,245	-0,00289
802,422	-0,003
802,6	-0,00301
802,777	-0,00297
802,954	-0,00287
803,132	-0,00282
803,309	-0,00275
803,486	-0,0028
803,664	-0,00253
803,841	-0,00243
804,018	-0,00248
804,195	-0,00247
804,373	-0,00253
804,55	-0,00241
804,727	-0,00245
804,904	-0,00245
805,081	-0,0024
805,259	-0,00251
805,436	-0,00266
805,613	-0,00274
805,79	-0,00275
805,967	-0,00269
806,144	-0,00276
806,321	-0,0028
806,498	-0,0028
806,675	-0,00286
806,852	-0,00279
807,029	-0,00284
807,206	-0,00297
807,383	-0,00288
807,56	-0,00295
807,737	-0,00301
807,914	-0,0029
808,091	-0,0028
808,268	-0,00263
808,444	-0,00268
808,621	-0,00262
808,798	-0,00284
808,975	-0,0027
809,152	-0,00266
809,328	-0,00271
809,505	-0,00263
809,682	-0,00267
809,858	-0,00275
810,035	-0,00275
810,212	-0,00279
810,388	-0,00285
810,565	-0,00283
810,742	-0,00277
810,918	-0,00297
811,095	-0,00299
811,271	-0,00281
811,448	-0,0028
811,625	-0,00275
811,801	-0,00272
811,978	-0,00268
812,154	-0,00278
812,33	-0,00286
812,507	-0,00279
812,683	-0,00274
812,86	-0,00267
813,036	-0,00252
813,212	-0,00265
813,389	-0,00276
813,565	-0,00288
813,741	-0,00281
813,918	-0,00295
814,094	-0,00284
814,27	-0,00283
814,447	-0,00288
814,623	-0,00271
814,799	-0,00269
814,975	-0,00281
815,151	-0,00272
815,328	-0,00271
815,504	-0,00266
815,68	-0,00286
815,856	-0,00275
816,032	-0,00262
816,208	-0,00253
816,384	-0,00266
816,56	-0,00273
816,736	-0,00287
816,912	-0,00287
817,088	-0,00289
817,264	-0,00288
817,44	-0,00295
817,616	-0,0029
817,792	-0,00305
817,968	-0,00305
818,144	-0,00295
818,32	-0,00279
818,495	-0,00281
818,671	-0,00274
818,847	-0,00285
819,023	-0,00276
819,199	-0,00263
819,374	-0,00241
819,55	-0,00235
819,726	-0,00235
819,902	-0,00233
820,077	-0,00249
820,253	-0,00256
820,429	-0,00268
820,604	-0,00254
820,78	-0,00237
820,956	-0,00245
821,131	-0,00262
821,307	-0,00266
821,482	-0,00261
821,658	-0,00237
821,833	-0,00264
822,009	-0,00281
822,184	-0,0028
822,36	-0,0027
822,535	-0,00286
822,711	-0,0029
822,886	-0,00301
823,061	-0,00309
823,237	-0,00312
823,412	-0,00319
823,587	-0,00341
823,763	-0,00335
823,938	-0,00319
824,113	-0,00318
824,289	-0,0032
824,464	-0,00308
824,639	-0,00303
824,814	-0,00306
824,99	-0,00288
825,165	-0,00284
825,34	-0,00281
825,515	-0,00259
825,69	-0,00259
825,865	-0,00257
826,04	-0,00246
826,215	-0,00238
826,39	-0,0022
826,566	-0,00222
826,741	-0,00204
826,916	-0,00222
827,091	-0,00243
827,265	-0,00239
827,44	-0,00245
827,615	-0,00237
827,79	-0,00249
827,965	-0,00264
828,14	-0,00279
828,315	-0,00301
828,49	-0,00299
828,665	-0,00302
828,839	-0,00296
829,014	-0,00288
829,189	-0,00292
829,364	-0,00286
829,538	-0,00284
829,713	-0,00276
829,888	-0,0028
830,063	-0,00277
830,237	-0,00295
830,412	-0,00281
830,587	-0,00282
830,761	-0,00265
830,936	-0,00254
831,11	-0,0024
831,285	-0,00265
831,459	-0,00258
831,634	-0,00269
831,809	-0,00249
831,983	-0,00259
832,157	-0,00248
832,332	-0,00278
832,506	-0,00268
832,681	-0,0028
832,855	-0,003
833,03	-0,00317
833,204	-0,00306
833,378	-0,00315
833,553	-0,003
833,727	-0,00316
833,901	-0,00297
834,076	-0,00278
834,25	-0,00274
834,424	-0,00287
834,598	-0,00275
834,773	-0,00253
834,947	-0,00234
835,121	-0,00236
835,295	-0,00236
835,469	-0,00252
835,643	-0,00267
835,817	-0,00269
835,991	-0,00292
836,166	-0,00307
836,34	-0,00308
836,514	-0,00323
836,688	-0,00331
836,862	-0,00352
837,036	-0,00368
837,21	-0,00367
837,384	-0,00359
837,557	-0,00325
837,731	-0,00322
837,905	-0,00291
838,079	-0,00278
838,253	-0,00297
838,427	-0,00302
838,601	-0,00316
838,774	-0,00316
838,948	-0,00306
839,122	-0,00293
839,296	-0,00284
839,469	-0,00271
839,643	-0,00271
839,817	-0,00314
839,991	-0,00338
840,164	-0,00313
840,338	-0,0033
840,512	-0,00313
840,685	-0,00308
840,859	-0,00312
841,032	-0,00339
841,206	-0,0034
841,379	-0,00373
841,553	-0,00366
841,726	-0,00329
841,9	-0,0029
842,073	-0,00289
842,247	-0,00259
842,42	-0,00271
842,594	-0,00259
842,767	-0,00266
842,94	-0,00258
843,114	-0,00246
843,287	-0,00245
843,46	-0,00278
843,634	-0,00321
843,807	-0,00332
843,98	-0,00328
844,154	-0,00329
844,327	-0,00327
844,5	-0,00335
844,673	-0,0031
844,846	-0,00306
845,02	-0,00327
845,193	-0,00341
845,366	-0,00322
845,539	-0,00298
845,712	-0,00294
845,885	-0,00321
846,058	-0,00333
846,231	-0,00345
846,404	-0,00354
846,577	-0,00354
846,75	-0,00344
846,923	-0,00325
847,096	-0,00318
847,269	-0,00313
847,442	-0,0031
847,615	-0,00312
847,788	-0,00311
847,961	-0,00291
848,133	-0,00281
848,306	-0,00262
848,479	-0,00264
848,652	-0,00266
848,825	-0,00269
848,997	-0,00266
849,17	-0,00279
849,343	-0,00282
849,515	-0,00288
849,688	-0,00301
849,861	-0,00302
850,033	-0,0029
850,206	-0,00297
850,379	-0,00313
850,551	-0,00318
850,724	-0,0031
850,896	-0,0031
851,069	-0,00298
851,241	-0,00293
851,414	-0,0027
851,586	-0,00252
851,759	-0,00249
851,931	-0,0026
852,104	-0,00269
852,276	-0,00268
852,449	-0,00267
852,621	-0,00279
852,793	-0,00294
852,966	-0,00297
853,138	-0,0029
853,31	-0,00308
853,483	-0,00291
853,655	-0,00297
853,827	-0,00296
853,999	-0,00293
854,172	-0,00278
854,344	-0,00288
854,516	-0,00285
854,688	-0,00264
854,86	-0,00277
855,032	-0,00305
855,204	-0,00301
855,377	-0,00317
855,549	-0,00325
855,721	-0,00328
855,893	-0,00354
856,065	-0,0038
856,237	-0,0038
856,409	-0,00398
856,581	-0,00397
856,753	-0,00388
856,924	-0,00382
857,096	-0,00372
857,268	-0,00374
857,44	-0,00373
857,612	-0,00356
857,784	-0,00338
857,956	-0,00313
858,127	-0,00291
858,299	-0,00308
858,471	-0,00303
858,643	-0,00295
858,814	-0,00282
858,986	-0,00281
859,158	-0,00271
859,33	-0,00264
859,501	-0,00285
859,673	-0,00278
859,844	-0,00277
860,016	-0,00284
860,188	-0,00253
860,359	-0,00245
860,531	-0,00263
860,702	-0,00286
860,874	-0,00309
861,045	-0,00324
861,217	-0,00329
861,388	-0,00313
861,56	-0,00324
861,731	-0,00341
861,902	-0,00361
862,074	-0,00359
862,245	-0,00364
862,417	-0,00352
862,588	-0,00333
862,759	-0,00315
862,931	-0,00316
863,102	-0,00304
863,273	-0,00293
863,444	-0,00301
863,616	-0,00288
863,787	-0,00305
863,958	-0,00323
864,129	-0,00345
864,3	-0,00376
864,471	-0,00398
864,642	-0,00399
864,814	-0,00404
864,985	-0,00428
865,156	-0,00454
865,327	-0,00447
865,498	-0,0043
865,669	-0,0041
865,84	-0,00398
866,011	-0,00387
866,182	-0,00338
866,353	-0,00327
866,523	-0,00354
866,694	-0,00315
866,865	-0,00304
867,036	-0,00314
867,207	-0,00314
867,378	-0,00354
867,549	-0,00368
867,719	-0,00368
867,89	-0,00394
868,061	-0,00409
868,232	-0,00415
868,402	-0,00427
868,573	-0,0047
868,744	-0,00452
868,914	-0,00435
869,085	-0,00456
869,256	-0,00439
869,426	-0,00422
869,597	-0,00436
869,767	-0,00414
869,938	-0,00397
870,108	-0,00376
870,279	-0,00347
870,449	-0,00352
870,62	-0,00388
870,79	-0,004
870,961	-0,00354
871,131	-0,0035
871,302	-0,00333
871,472	-0,00312
871,642	-0,00326
871,813	-0,00336
871,983	-0,0035
872,153	-0,00337
872,324	-0,00303
872,494	-0,00297
872,664	-0,00277
872,835	-0,0025
873,005	-0,00228
873,175	-0,00246
873,345	-0,00275
873,515	-0,00267
873,685	-0,00305
873,856	-0,00278
874,026	-0,00281
874,196	-0,00299
874,366	-0,0032
874,536	-0,00324
874,706	-0,00363
874,876	-0,00398
875,046	-0,00415
875,216	-0,00383
875,386	-0,0035
875,556	-0,00308
875,726	-0,00333
875,896	-0,00357
876,066	-0,00362
876,236	-0,00361
876,405	-0,00379
876,575	-0,00384
876,745	-0,0039
876,915	-0,00366
877,085	-0,00359
877,254	-0,0038
877,424	-0,00396
877,594	-0,00394
877,764	-0,00395
877,933	-0,00366
878,103	-0,00331
878,273	-0,00294
878,442	-0,00285
878,612	-0,00277
878,781	-0,00291
878,951	-0,00291
879,121	-0,00301
879,29	-0,00316
879,46	-0,00307
879,629	-0,00278
879,799	-0,00295
879,968	-0,00271
880,138	-0,00264
880,307	-0,00261
880,476	-0,00245
880,646	-0,00255
880,815	-0,00259
880,985	-0,00268
881,154	-0,00253
881,323	-0,00278
881,493	-0,00278
881,662	-0,00307
881,831	-0,00324
882	-0,00387
882,17	-0,00382
882,339	-0,00424
882,508	-0,00416
882,677	-0,00411
882,846	-0,00383
883,016	-0,00374
883,185	-0,00364
883,354	-0,00382
883,523	-0,00363
883,692	-0,00354
883,861	-0,00325
884,03	-0,00376
884,199	-0,00345
884,368	-0,00327
884,537	-0,00377
884,706	-0,00378
884,875	-0,004
885,044	-0,00391
885,213	-0,00365
885,382	-0,00377
885,55	-0,00399
885,719	-0,00411
885,888	-0,00394
886,057	-0,00425
886,226	-0,00421
886,395	-0,00396
886,563	-0,00428
886,732	-0,00405
886,901	-0,00404
887,069	-0,00425
887,238	-0,00419
887,407	-0,00416
887,575	-0,00377
887,744	-0,00329
887,913	-0,00323
888,081	-0,0032
888,25	-0,00319
888,418	-0,00301
888,587	-0,00345
888,755	-0,00375
888,924	-0,00372
889,092	-0,00354
889,261	-0,00371
889,429	-0,00395
889,598	-0,00427
889,766	-0,00393
889,935	-0,00414
890,103	-0,00422
890,271	-0,00457
890,44	-0,00447
890,608	-0,0044
890,776	-0,00454
890,944	-0,00436
891,113	-0,00407
891,281	-0,00423
891,449	-0,00439
891,617	-0,00482
891,786	-0,00486
891,954	-0,0047
892,122	-0,00416
892,29	-0,00384
892,458	-0,0039
892,626	-0,00343
892,794	-0,00364
892,962	-0,00379
893,13	-0,00359
893,298	-0,00331
893,466	-0,00261
