Data from Absorbance__6__159.txt Node

Date: Mon Nov 04 09:56:29 CET 2024
User: r0948668
Spectrometer: S05006
Trigger mode: 0
Resolution mode: 1024 pixels
Integration Time (sec): 4,646000E-3
Scans to average: 10
Nonlinearity correction enabled: false
Boxcar width: 5
Baseline correction enabled: true
XAxis mode: Wavelengths
Number of Pixels in Spectrum: 1024
>>>>>Begin Spectral Data<<<<<
336,523	0,02
336,98	0,03
337,437	0,02
337,893	0,02
338,35	0,02
338,807	0,02
339,264	0,02
339,72	0,02
340,177	0,02
340,634	0,02
341,091	0,02
341,548	0,03
342,005	0,01
342,462	0,02
342,919	0,03
343,376	0,03
343,833	0,03
344,29	0,03
344,748	0,03
345,205	0,04
345,662	0,04
346,119	0,05
346,577	0,05
347,034	0,05
347,491	0,05
347,949	0,04
348,406	0,05
348,864	0,05
349,321	0,05
349,779	0,06
350,236	0,05
350,694	0,05
351,151	0,04
351,609	0,04
352,067	0,05
352,524	0,05
352,982	0,05
353,44	0,04
353,898	0,04
354,356	0,04
354,814	0,04
355,271	0,04
355,729	0,04
356,187	0,04
356,645	0,03
357,103	0,03
357,561	0,03
358,02	0,04
358,478	0,04
358,936	0,04
359,394	0,04
359,852	0,03
360,311	0,03
360,769	0,03
361,227	0,03
361,686	0,03
362,144	0,03
362,602	0,03
363,061	0,03
363,519	0,03
363,978	0,04
364,436	0,04
364,895	0,04
365,354	0,04
365,812	0,04
366,271	0,05
366,73	0,05
367,188	0,04
367,647	0,04
368,106	0,04
368,565	0,04
369,024	0,04
369,482	0,04
369,941	0,04
370,4	0,04
370,859	0,04
371,318	0,04
371,778	0,04
372,237	0,04
372,696	0,04
373,155	0,04
373,614	0,04
374,073	0,04
374,533	0,04
374,992	0,04
375,451	0,04
375,911	0,04
376,37	0,04
376,829	0,05
377,289	0,05
377,748	0,05
378,208	0,05
378,667	0,05
379,127	0,05
379,587	0,05
380,046	0,05
380,506	0,05
380,966	0,05
381,425	0,05
381,885	0,06
382,345	0,05
382,805	0,05
383,265	0,05
383,725	0,05
384,185	0,05
384,645	0,05
385,105	0,05
385,565	0,05
386,025	0,05
386,485	0,05
386,945	0,05
387,405	0,05
387,865	0,05
388,326	0,05
388,786	0,05
389,246	0,05
389,707	0,05
390,167	0,06
390,627	0,06
391,088	0,06
391,548	0,06
392,009	0,06
392,469	0,06
392,93	0,06
393,391	0,06
393,851	0,06
394,312	0,06
394,773	0,06
395,233	0,06
395,694	0,06
396,155	0,06
396,616	0,06
397,077	0,06
397,538	0,06
397,999	0,06
398,46	0,06
398,921	0,06
399,382	0,06
399,843	0,06
400,304	0,06
400,765	0,06
401,226	0,06
401,687	0,06
402,149	0,06
402,61	0,06
403,071	0,06
403,533	0,06
403,994	0,06
404,455	0,06
404,917	0,06
405,378	0,06
405,84	0,06
406,301	0,06
406,763	0,06
407,225	0,06
407,686	0,06
408,148	0,06
408,61	0,06
409,071	0,06
409,533	0,06
409,995	0,06
410,457	0,06
410,919	0,06
411,381	0,06
411,843	0,06
412,305	0,06
412,767	0,06
413,229	0,06
413,691	0,06
414,153	0,06
414,615	0,06
415,077	0,06
415,539	0,06
416,002	0,06
416,464	0,06
416,926	0,06
417,389	0,06
417,851	0,06
418,313	0,06
418,776	0,06
419,238	0,06
419,701	0,06
420,163	0,06
420,626	0,06
421,089	0,06
421,551	0,06
422,014	0,06
422,477	0,06
422,94	0,06
423,402	0,06
423,865	0,06
424,328	0,06
424,791	0,06
425,254	0,07
425,717	0,07
426,18	0,07
426,643	0,07
427,106	0,07
427,569	0,07
428,032	0,07
428,495	0,07
428,959	0,07
429,422	0,07
429,885	0,07
430,349	0,07
430,812	0,07
431,275	0,07
431,739	0,07
432,202	0,07
432,666	0,07
433,129	0,07
433,593	0,07
434,056	0,07
434,52	0,07
434,984	0,07
435,447	0,07
435,911	0,08
436,375	0,08
436,839	0,08
437,302	0,08
437,766	0,08
438,23	0,08
438,694	0,08
439,158	0,08
439,622	0,08
440,086	0,08
440,55	0,08
441,014	0,08
441,479	0,08
441,943	0,08
442,407	0,08
442,871	0,09
443,335	0,09
443,8	0,09
444,264	0,09
444,729	0,09
445,193	0,09
445,657	0,09
446,122	0,09
446,586	0,09
447,051	0,1
447,516	0,1
447,98	0,1
448,445	0,1
448,91	0,1
449,374	0,1
449,839	0,1
450,304	0,1
450,769	0,11
451,234	0,11
451,699	0,11
452,164	0,11
452,629	0,11
453,094	0,11
453,559	0,11
454,024	0,12
454,489	0,12
454,954	0,12
455,419	0,12
455,884	0,12
456,35	0,13
456,815	0,13
457,28	0,13
457,746	0,13
458,211	0,13
458,677	0,13
459,142	0,14
459,608	0,14
460,073	0,14
460,539	0,14
461,004	0,14
461,47	0,15
461,936	0,15
462,401	0,15
462,867	0,15
463,333	0,15
463,799	0,16
464,265	0,16
464,731	0,16
465,197	0,16
465,663	0,16
466,129	0,17
466,595	0,17
467,061	0,17
467,527	0,17
467,993	0,17
468,459	0,18
468,925	0,18
469,392	0,18
469,858	0,18
470,324	0,19
470,791	0,19
471,257	0,19
471,724	0,19
472,19	0,19
472,657	0,2
473,123	0,2
473,59	0,2
474,056	0,2
474,523	0,21
474,99	0,21
475,456	0,21
475,923	0,21
476,39	0,22
476,857	0,22
477,324	0,22
477,791	0,22
478,257	0,22
478,724	0,23
479,191	0,23
479,659	0,23
480,126	0,23
480,593	0,23
481,06	0,24
481,527	0,24
481,994	0,24
482,462	0,24
482,929	0,24
483,396	0,25
483,864	0,25
484,331	0,25
484,798	0,25
485,266	0,25
485,733	0,26
486,201	0,26
486,669	0,26
487,136	0,26
487,604	0,26
488,072	0,27
488,539	0,27
489,007	0,27
489,475	0,27
489,943	0,27
490,411	0,27
490,879	0,28
491,347	0,28
491,815	0,28
492,283	0,28
492,751	0,28
493,219	0,29
493,687	0,29
494,155	0,29
494,623	0,29
495,092	0,29
495,56	0,29
496,028	0,3
496,496	0,3
496,965	0,3
497,433	0,3
497,902	0,3
498,37	0,3
498,839	0,31
499,307	0,31
499,776	0,31
500,245	0,31
500,713	0,31
501,182	0,31
501,651	0,32
502,12	0,32
502,588	0,32
503,057	0,32
503,526	0,32
503,995	0,32
504,464	0,32
504,933	0,33
505,402	0,33
505,871	0,33
506,34	0,33
506,81	0,33
507,279	0,33
507,748	0,34
508,217	0,34
508,687	0,34
509,156	0,34
509,625	0,34
510,095	0,34
510,564	0,34
511,034	0,34
511,503	0,34
511,973	0,34
512,442	0,34
512,912	0,34
513,382	0,34
513,852	0,34
514,321	0,35
514,791	0,35
515,261	0,35
515,731	0,35
516,201	0,35
516,671	0,35
517,141	0,35
517,611	0,35
518,081	0,35
518,551	0,35
519,021	0,35
519,491	0,35
519,961	0,35
520,432	0,35
520,902	0,34
521,372	0,34
521,842	0,34
522,313	0,34
522,783	0,34
523,254	0,34
523,724	0,34
524,195	0,34
524,665	0,34
525,136	0,34
525,607	0,34
526,077	0,34
526,548	0,33
527,019	0,33
527,49	0,33
527,96	0,33
528,431	0,33
528,902	0,33
529,373	0,33
529,844	0,33
530,315	0,32
530,786	0,32
531,257	0,32
531,729	0,32
532,2	0,32
532,671	0,32
533,142	0,32
533,613	0,32
534,085	0,31
534,556	0,31
535,028	0,31
535,499	0,31
535,971	0,31
536,442	0,31
536,914	0,31
537,385	0,3
537,857	0,3
538,328	0,3
538,8	0,3
539,272	0,3
539,744	0,3
540,216	0,3
540,687	0,29
541,159	0,29
541,631	0,29
542,103	0,29
542,575	0,29
543,047	0,29
543,519	0,29
543,992	0,29
544,464	0,28
544,936	0,28
545,408	0,28
545,88	0,28
546,353	0,28
546,825	0,28
547,297	0,27
547,77	0,27
548,242	0,27
548,715	0,27
549,187	0,27
549,66	0,27
550,133	0,26
550,605	0,26
551,078	0,26
551,551	0,26
552,023	0,26
552,496	0,25
552,969	0,25
553,442	0,25
553,915	0,25
554,388	0,25
554,861	0,24
555,334	0,24
555,807	0,24
556,28	0,24
556,753	0,23
557,227	0,23
557,7	0,23
558,173	0,22
558,646	0,22
559,12	0,22
559,593	0,22
560,067	0,21
560,54	0,21
561,014	0,21
561,487	0,2
561,961	0,2
562,434	0,2
562,908	0,19
563,382	0,19
563,855	0,18
564,329	0,18
564,803	0,18
565,277	0,17
565,751	0,17
566,225	0,17
566,699	0,16
567,173	0,16
567,647	0,16
568,121	0,15
568,595	0,15
569,069	0,14
569,543	0,14
570,018	0,14
570,492	0,13
570,966	0,13
571,44	0,13
571,915	0,12
572,389	0,12
572,864	0,11
573,338	0,11
573,813	0,11
574,287	0,1
574,762	0,1
575,237	0,09
575,711	0,09
576,186	0,09
576,661	0,09
577,136	0,08
577,611	0,08
578,086	0,07
578,561	0,07
579,036	0,07
579,511	0,07
579,986	0,06
580,461	0,06
580,936	0,06
581,411	0,05
581,886	0,05
582,362	0,05
582,837	0,05
583,312	0,04
583,788	0,04
584,263	0,04
584,738	0,03
585,214	0,03
585,689	0,03
586,165	0,03
586,641	0,03
587,116	0,03
587,592	0,02
588,068	0,02
588,543	0,02
589,019	0,02
589,495	0,02
589,971	0,02
590,447	0,01
590,923	0,01
591,399	0,01
591,875	0,01
592,351	0,01
592,827	0,01
593,303	0,01
593,78	0
594,256	0
594,732	0
595,208	0
595,685	0
596,161	0
596,638	-0
597,114	-0
597,591	-0
598,067	-0,01
598,544	-0,01
599,02	-0,01
599,497	-0,01
599,974	-0,01
600,451	-0,01
600,927	-0,01
601,404	-0,01
601,881	-0,01
602,358	-0,01
602,835	-0,01
603,312	-0,01
603,789	-0,01
604,266	-0,01
604,743	-0,01
605,22	-0,01
605,698	-0,01
606,175	-0,01
606,652	-0,01
607,13	-0,01
607,607	-0,01
608,084	-0,01
608,562	-0,01
609,039	-0,01
609,517	-0,01
609,994	-0,01
610,472	-0,01
610,95	-0,02
611,427	-0,02
611,905	-0,02
612,383	-0,01
612,861	-0,01
613,338	-0,01
613,816	-0,01
614,294	-0,02
614,772	-0,02
615,25	-0,02
615,728	-0,02
616,206	-0,02
616,684	-0,01
617,163	-0,02
617,641	-0,02
618,119	-0,02
618,597	-0,02
619,076	-0,02
619,554	-0,02
620,032	-0,02
620,511	-0,02
620,989	-0,02
621,468	-0,02
621,946	-0,02
622,425	-0,02
622,904	-0,02
623,382	-0,02
623,861	-0,02
624,34	-0,02
624,819	-0,02
625,298	-0,02
625,776	-0,02
626,255	-0,02
626,734	-0,02
627,213	-0,02
627,692	-0,02
628,172	-0,02
628,651	-0,02
629,13	-0,02
629,609	-0,02
630,088	-0,02
630,568	-0,02
631,047	-0,02
631,526	-0,02
632,006	-0,02
632,485	-0,02
632,965	-0,02
633,444	-0,02
633,924	-0,02
634,404	-0,02
634,883	-0,02
635,363	-0,02
635,843	-0,02
636,323	-0,02
636,802	-0,02
637,282	-0,02
637,762	-0,02
638,242	-0,02
638,722	-0,02
639,202	-0,02
639,682	-0,02
640,162	-0,02
640,643	-0,02
641,123	-0,02
641,603	-0,02
642,083	-0,02
642,564	-0,02
643,044	-0,02
643,524	-0,02
644,005	-0,02
644,485	-0,02
644,966	-0,02
645,446	-0,02
645,927	-0,02
646,408	-0,02
646,888	-0,02
647,369	-0,02
647,85	-0,02
648,331	-0,02
648,812	-0,02
649,293	-0,02
649,773	-0,02
650,254	-0,02
650,736	-0,02
651,217	-0,02
651,698	-0,02
652,179	-0,02
652,66	-0,02
653,141	-0,02
653,623	-0,02
654,104	-0,02
654,585	-0,02
655,067	-0,02
655,548	-0,02
656,03	-0,02
656,511	-0,02
656,993	-0,02
657,474	-0,02
657,956	-0,02
658,438	-0,02
658,919	-0,02
659,401	-0,02
659,883	-0,02
660,365	-0,02
660,847	-0,02
661,329	-0,02
661,811	-0,02
662,293	-0,02
662,775	-0,02
663,257	-0,02
663,739	-0,02
664,221	-0,02
664,703	-0,02
665,186	-0,02
665,668	-0,02
666,15	-0,02
666,633	-0,02
667,115	-0,02
667,598	-0,02
668,08	-0,02
668,563	-0,02
669,046	-0,02
669,528	-0,02
670,011	-0,02
670,494	-0,02
670,976	-0,02
671,459	-0,02
671,942	-0,02
672,425	-0,02
672,908	-0,02
673,391	-0,02
673,874	-0,02
674,357	-0,02
674,84	-0,02
675,323	-0,02
675,807	-0,02
676,29	-0,02
676,773	-0,02
677,256	-0,02
677,74	-0,02
678,223	-0,01
678,707	-0,01
679,19	-0,01
679,674	-0,02
680,157	-0,02
680,641	-0,02
681,125	-0,02
681,608	-0,02
682,092	-0,02
682,576	-0,01
683,06	-0,01
683,544	-0,01
684,028	-0,02
684,512	-0,02
684,996	-0,02
685,48	-0,02
685,964	-0,02
686,448	-0,01
686,932	-0,01
687,416	-0,01
687,9	-0,01
688,385	-0,02
688,869	-0,02
689,354	-0,02
689,838	-0,02
690,322	-0,02
690,807	-0,01
691,292	-0,01
691,776	-0,01
692,261	-0,01
692,745	-0,02
693,23	-0,02
693,715	-0,02
694,2	-0,02
694,685	-0,02
695,17	-0,02
695,655	-0,02
696,14	-0,01
696,625	-0,02
697,11	-0,02
697,595	-0,02
698,08	-0,02
698,565	-0,02
699,05	-0,02
699,536	-0,02
700,021	-0,01
700,506	-0,01
700,992	-0,01
701,477	-0,01
701,963	-0,02
702,448	-0,02
702,934	-0,02
703,42	-0,02
703,905	-0,02
704,391	-0,01
704,877	-0,01
705,363	-0,01
705,848	-0,01
706,334	-0,01
706,82	-0,02
707,306	-0,02
707,792	-0,02
708,278	-0,02
708,764	-0,01
709,251	-0,01
709,737	-0,01
710,223	-0,01
710,709	-0,01
711,196	-0,02
711,682	-0,02
712,168	-0,02
712,655	-0,02
713,141	-0,02
713,628	-0,01
714,114	-0,01
714,601	-0,01
715,088	-0,01
715,574	-0,01
716,061	-0,02
716,548	-0,02
717,035	-0,02
717,522	-0,01
718,009	-0,01
718,496	-0,01
718,983	-0,01
719,47	-0,01
719,957	-0,01
720,444	-0,02
720,931	-0,02
721,418	-0,02
721,906	-0,02
722,393	-0,02
722,88	-0,01
723,368	-0,01
723,855	-0,01
724,343	-0,01
724,83	-0,01
725,318	-0,02
725,806	-0,02
726,293	-0,02
726,781	-0,02
727,269	-0,02
727,757	-0,02
728,244	-0,01
728,732	-0,01
729,22	-0,01
729,708	-0,02
730,196	-0,02
730,684	-0,02
731,172	-0,02
731,661	-0,02
732,149	-0,02
732,637	-0,01
733,125	-0,01
733,614	-0,01
734,102	-0,01
734,591	-0,01
735,079	-0,01
735,568	-0,01
736,056	-0,02
736,545	-0,02
737,033	-0,01
737,522	-0,01
738,011	-0,01
738,499	-0,01
738,988	-0,01
739,477	-0,01
739,966	-0,01
740,455	-0,01
740,944	-0,01
741,433	-0,01
741,922	-0,01
742,411	-0,01
742,9	-0,01
743,39	-0,01
743,879	-0,01
744,368	-0,01
744,858	-0,01
745,347	-0,01
745,836	-0,01
746,326	-0,01
746,815	-0,01
747,305	-0,01
747,795	-0,01
748,284	-0,01
748,774	-0,01
749,264	-0,01
749,754	-0,01
750,243	-0,01
750,733	-0,01
751,223	-0,01
751,713	-0,01
752,203	-0,01
752,693	-0,01
753,183	-0,01
753,674	-0,01
754,164	-0,01
754,654	-0,01
755,144	-0,01
755,635	-0,01
756,125	-0,01
756,615	-0,01
757,106	-0,01
757,596	-0,01
758,087	-0,01
758,578	-0,01
759,068	-0,01
759,559	-0,01
760,05	-0,02
760,54	-0,02
761,031	-0,02
761,522	-0,02
762,013	-0,02
762,504	-0,02
762,995	-0,02
763,486	-0,02
763,977	-0,02
764,468	-0,02
764,959	-0,02
765,451	-0,02
765,942	-0,01
766,433	-0,01
766,925	-0,01
767,416	-0,01
767,907	-0,01
768,399	-0,01
768,89	-0,01
769,382	-0,02
769,874	-0,02
770,365	-0,02
770,857	-0,02
771,349	-0,02
771,841	-0,02
772,333	-0,01
772,824	-0,01
773,316	-0,01
773,808	-0,01
774,3	-0,01
774,792	-0,01
775,285	-0,01
775,777	-0,01
776,269	-0,01
776,761	-0,01
777,254	-0,01
777,746	-0,01
778,238	-0,01
778,731	-0,01
779,223	-0,01
779,716	-0,01
780,208	-0,01
780,701	-0,01
781,194	-0,01
781,686	-0,01
782,179	-0,01
782,672	-0,01
783,165	-0,01
783,658	-0,01
784,151	-0,01
784,644	-0,01
785,137	-0,01
785,63	-0,01
786,123	-0,01
786,616	-0,01
787,109	-0,01
787,603	-0,01
788,096	-0,01
788,589	-0,01
789,083	-0,01
789,576	-0,01
790,07	-0,01
790,563	-0,01
791,057	-0,01
791,55	-0,01
792,044	-0,01
792,538	-0,01
793,032	-0,01
793,525	-0,01
794,019	-0,01
794,513	-0,01
795,007	-0,01
795,501	-0,01
795,995	-0,01
796,489	-0,01
796,983	-0,01
797,478	-0,01
797,972	-0,01
798,466	-0,01
798,96	-0,01
799,455	-0,01
799,949	-0,01
800,444	-0,01
800,938	-0,01
801,433	-0,01
801,927	-0,01
802,422	-0,01
802,917	-0,01
803,411	-0,01
803,906	-0,01
804,401	-0,01
804,896	-0,01
805,391	-0,01
805,886	-0,01
806,381	-0,01
806,876	-0,01
807,371	-0,01
807,866	-0,01
808,361	-0,01
808,856	-0,01
809,352	-0,01
809,847	-0,01
810,342	-0,01
810,838	-0,01
811,333	-0,01
811,829	-0,01
812,324	-0,01
812,82	-0,01
813,316	-0,01
813,811	-0,01
814,307	-0,01
814,803	-0,01
815,299	-0,01
815,795	-0,01
816,291	-0,01
816,787	-0,01
817,283	-0,01
817,779	-0,01
818,275	-0,01
818,771	-0,01
819,267	-0,01
819,764	-0,01
820,26	-0,01
820,756	-0,01
821,253	-0,01
821,749	-0,01
822,246	-0,01
822,742	-0,01
