Data from Absorbance__18__171.txt Node

Date: Mon Nov 04 10:06:55 CET 2024
User: r0948668
Spectrometer: S05006
Trigger mode: 0
Resolution mode: 1024 pixels
Integration Time (sec): 4,646000E-3
Scans to average: 10
Nonlinearity correction enabled: false
Boxcar width: 5
Baseline correction enabled: true
XAxis mode: Wavelengths
Number of Pixels in Spectrum: 1024
>>>>>Begin Spectral Data<<<<<
336,523	0,05
336,98	0,05
337,437	0,05
337,893	0,04
338,35	0,05
338,807	0,05
339,264	0,04
339,72	0,05
340,177	0,06
340,634	0,07
341,091	0,05
341,548	0,06
342,005	0,06
342,462	0,07
342,919	0,08
343,376	0,07
343,833	0,07
344,29	0,07
344,748	0,07
345,205	0,06
345,662	0,07
346,119	0,08
346,577	0,08
347,034	0,09
347,491	0,08
347,949	0,08
348,406	0,09
348,864	0,09
349,321	0,09
349,779	0,08
350,236	0,1
350,694	0,09
351,151	0,08
351,609	0,08
352,067	0,07
352,524	0,07
352,982	0,08
353,44	0,08
353,898	0,07
354,356	0,07
354,814	0,07
355,271	0,06
355,729	0,06
356,187	0,06
356,645	0,06
357,103	0,06
357,561	0,05
358,02	0,05
358,478	0,05
358,936	0,05
359,394	0,05
359,852	0,05
360,311	0,05
360,769	0,05
361,227	0,05
361,686	0,04
362,144	0,05
362,602	0,05
363,061	0,06
363,519	0,06
363,978	0,06
364,436	0,07
364,895	0,06
365,354	0,07
365,812	0,07
366,271	0,07
366,73	0,07
367,188	0,07
367,647	0,07
368,106	0,06
368,565	0,06
369,024	0,07
369,482	0,06
369,941	0,06
370,4	0,06
370,859	0,06
371,318	0,07
371,778	0,07
372,237	0,07
372,696	0,07
373,155	0,07
373,614	0,08
374,073	0,08
374,533	0,07
374,992	0,08
375,451	0,08
375,911	0,08
376,37	0,08
376,829	0,08
377,289	0,08
377,748	0,08
378,208	0,08
378,667	0,08
379,127	0,08
379,587	0,08
380,046	0,08
380,506	0,09
380,966	0,09
381,425	0,09
381,885	0,09
382,345	0,09
382,805	0,09
383,265	0,09
383,725	0,09
384,185	0,09
384,645	0,09
385,105	0,09
385,565	0,09
386,025	0,1
386,485	0,1
386,945	0,1
387,405	0,1
387,865	0,1
388,326	0,11
388,786	0,11
389,246	0,11
389,707	0,11
390,167	0,11
390,627	0,12
391,088	0,12
391,548	0,12
392,009	0,12
392,469	0,12
392,93	0,12
393,391	0,12
393,851	0,12
394,312	0,12
394,773	0,12
395,233	0,12
395,694	0,12
396,155	0,12
396,616	0,12
397,077	0,12
397,538	0,12
397,999	0,12
398,46	0,13
398,921	0,13
399,382	0,13
399,843	0,13
400,304	0,13
400,765	0,13
401,226	0,13
401,687	0,14
402,149	0,14
402,61	0,14
403,071	0,14
403,533	0,14
403,994	0,14
404,455	0,14
404,917	0,14
405,378	0,14
405,84	0,14
406,301	0,15
406,763	0,15
407,225	0,15
407,686	0,15
408,148	0,15
408,61	0,15
409,071	0,15
409,533	0,15
409,995	0,15
410,457	0,15
410,919	0,15
411,381	0,15
411,843	0,15
412,305	0,15
412,767	0,15
413,229	0,15
413,691	0,15
414,153	0,15
414,615	0,15
415,077	0,15
415,539	0,15
416,002	0,15
416,464	0,15
416,926	0,15
417,389	0,15
417,851	0,15
418,313	0,15
418,776	0,15
419,238	0,15
419,701	0,15
420,163	0,15
420,626	0,15
421,089	0,15
421,551	0,15
422,014	0,14
422,477	0,14
422,94	0,14
423,402	0,14
423,865	0,14
424,328	0,14
424,791	0,14
425,254	0,14
425,717	0,14
426,18	0,14
426,643	0,14
427,106	0,14
427,569	0,14
428,032	0,14
428,495	0,14
428,959	0,14
429,422	0,14
429,885	0,14
430,349	0,14
430,812	0,14
431,275	0,14
431,739	0,13
432,202	0,13
432,666	0,13
433,129	0,13
433,593	0,13
434,056	0,13
434,52	0,13
434,984	0,13
435,447	0,13
435,911	0,13
436,375	0,13
436,839	0,13
437,302	0,13
437,766	0,13
438,23	0,13
438,694	0,13
439,158	0,13
439,622	0,13
440,086	0,13
440,55	0,13
441,014	0,13
441,479	0,13
441,943	0,13
442,407	0,12
442,871	0,12
443,335	0,12
443,8	0,12
444,264	0,12
444,729	0,12
445,193	0,12
445,657	0,12
446,122	0,12
446,586	0,12
447,051	0,12
447,516	0,12
447,98	0,12
448,445	0,12
448,91	0,11
449,374	0,11
449,839	0,11
450,304	0,11
450,769	0,11
451,234	0,11
451,699	0,11
452,164	0,11
452,629	0,11
453,094	0,11
453,559	0,1
454,024	0,1
454,489	0,1
454,954	0,1
455,419	0,1
455,884	0,1
456,35	0,1
456,815	0,1
457,28	0,1
457,746	0,09
458,211	0,09
458,677	0,09
459,142	0,09
459,608	0,09
460,073	0,09
460,539	0,09
461,004	0,09
461,47	0,09
461,936	0,09
462,401	0,08
462,867	0,08
463,333	0,08
463,799	0,08
464,265	0,08
464,731	0,08
465,197	0,08
465,663	0,08
466,129	0,08
466,595	0,07
467,061	0,07
467,527	0,07
467,993	0,07
468,459	0,07
468,925	0,07
469,392	0,07
469,858	0,07
470,324	0,07
470,791	0,06
471,257	0,06
471,724	0,06
472,19	0,06
472,657	0,06
473,123	0,06
473,59	0,06
474,056	0,06
474,523	0,06
474,99	0,05
475,456	0,05
475,923	0,05
476,39	0,05
476,857	0,05
477,324	0,05
477,791	0,05
478,257	0,04
478,724	0,04
479,191	0,04
479,659	0,04
480,126	0,04
480,593	0,04
481,06	0,04
481,527	0,04
481,994	0,03
482,462	0,03
482,929	0,03
483,396	0,03
483,864	0,03
484,331	0,03
484,798	0,03
485,266	0,03
485,733	0,02
486,201	0,02
486,669	0,02
487,136	0,02
487,604	0,02
488,072	0,02
488,539	0,02
489,007	0,02
489,475	0,02
489,943	0,01
490,411	0,01
490,879	0,01
491,347	0,01
491,815	0,01
492,283	0,01
492,751	0,01
493,219	0,01
493,687	0,01
494,155	0,01
494,623	0,01
495,092	0
495,56	0
496,028	0
496,496	0
496,965	0
497,433	0
497,902	0
498,37	0
498,839	0
499,307	-0
499,776	-0
500,245	-0
500,713	-0
501,182	-0
501,651	-0
502,12	-0
502,588	-0
503,057	-0
503,526	-0
503,995	-0
504,464	-0
504,933	-0
505,402	-0
505,871	-0
506,34	-0
506,81	-0
507,279	-0
507,748	-0
508,217	-0
508,687	-0
509,156	-0
509,625	-0
510,095	-0
510,564	-0
511,034	-0
511,503	-0
511,973	-0
512,442	-0
512,912	-0
513,382	-0
513,852	-0
514,321	-0
514,791	-0
515,261	-0
515,731	-0
516,201	-0
516,671	-0
517,141	-0
517,611	-0
518,081	-0
518,551	-0
519,021	-0
519,491	-0
519,961	-0
520,432	-0
520,902	-0
521,372	-0
521,842	-0
522,313	-0
522,783	-0
523,254	-0
523,724	-0
524,195	-0
524,665	-0
525,136	-0
525,607	-0
526,077	-0
526,548	-0
527,019	-0
527,49	0
527,96	0
528,431	0
528,902	0
529,373	0
529,844	0
530,315	0
530,786	0
531,257	0
531,729	0
532,2	0
532,671	0
533,142	0
533,613	0
534,085	0
534,556	0,01
535,028	0,01
535,499	0,01
535,971	0,01
536,442	0,01
536,914	0,01
537,385	0,01
537,857	0,01
538,328	0,01
538,8	0,01
539,272	0,01
539,744	0,01
540,216	0,01
540,687	0,01
541,159	0,01
541,631	0,01
542,103	0,01
542,575	0,01
543,047	0,01
543,519	0,01
543,992	0,01
544,464	0,01
544,936	0,01
545,408	0,02
545,88	0,02
546,353	0,02
546,825	0,02
547,297	0,02
547,77	0,02
548,242	0,02
548,715	0,02
549,187	0,02
549,66	0,02
550,133	0,02
550,605	0,02
551,078	0,02
551,551	0,02
552,023	0,02
552,496	0,02
552,969	0,03
553,442	0,03
553,915	0,03
554,388	0,03
554,861	0,03
555,334	0,03
555,807	0,03
556,28	0,03
556,753	0,03
557,227	0,03
557,7	0,03
558,173	0,04
558,646	0,04
559,12	0,04
559,593	0,04
560,067	0,04
560,54	0,04
561,014	0,04
561,487	0,04
561,961	0,04
562,434	0,05
562,908	0,05
563,382	0,05
563,855	0,05
564,329	0,05
564,803	0,05
565,277	0,05
565,751	0,05
566,225	0,05
566,699	0,06
567,173	0,06
567,647	0,06
568,121	0,06
568,595	0,06
569,069	0,06
569,543	0,06
570,018	0,07
570,492	0,07
570,966	0,07
571,44	0,07
571,915	0,07
572,389	0,07
572,864	0,07
573,338	0,08
573,813	0,08
574,287	0,08
574,762	0,08
575,237	0,08
575,711	0,08
576,186	0,08
576,661	0,09
577,136	0,09
577,611	0,09
578,086	0,09
578,561	0,09
579,036	0,09
579,511	0,09
579,986	0,09
580,461	0,1
580,936	0,1
581,411	0,1
581,886	0,1
582,362	0,1
582,837	0,1
583,312	0,1
583,788	0,1
584,263	0,1
584,738	0,1
585,214	0,11
585,689	0,11
586,165	0,11
586,641	0,11
587,116	0,11
587,592	0,11
588,068	0,11
588,543	0,11
589,019	0,12
589,495	0,12
589,971	0,12
590,447	0,12
590,923	0,12
591,399	0,12
591,875	0,12
592,351	0,13
592,827	0,13
593,303	0,13
593,78	0,13
594,256	0,13
594,732	0,13
595,208	0,13
595,685	0,14
596,161	0,14
596,638	0,14
597,114	0,14
597,591	0,14
598,067	0,14
598,544	0,15
599,02	0,15
599,497	0,15
599,974	0,15
600,451	0,16
600,927	0,16
601,404	0,16
601,881	0,16
602,358	0,17
602,835	0,17
603,312	0,17
603,789	0,17
604,266	0,18
604,743	0,18
605,22	0,18
605,698	0,19
606,175	0,19
606,652	0,2
607,13	0,2
607,607	0,2
608,084	0,21
608,562	0,21
609,039	0,21
609,517	0,22
609,994	0,22
610,472	0,23
610,95	0,23
611,427	0,23
611,905	0,24
612,383	0,24
612,861	0,25
613,338	0,25
613,816	0,26
614,294	0,26
614,772	0,26
615,25	0,27
615,728	0,27
616,206	0,28
616,684	0,28
617,163	0,29
617,641	0,29
618,119	0,3
618,597	0,3
619,076	0,31
619,554	0,31
620,032	0,32
620,511	0,32
620,989	0,32
621,468	0,33
621,946	0,33
622,425	0,33
622,904	0,34
623,382	0,34
623,861	0,34
624,34	0,35
624,819	0,35
625,298	0,35
625,776	0,35
626,255	0,36
626,734	0,36
627,213	0,36
627,692	0,36
628,172	0,36
628,651	0,36
629,13	0,36
629,609	0,36
630,088	0,36
630,568	0,36
631,047	0,36
631,526	0,36
632,006	0,36
632,485	0,35
632,965	0,35
633,444	0,35
633,924	0,35
634,404	0,34
634,883	0,34
635,363	0,34
635,843	0,33
636,323	0,33
636,802	0,32
637,282	0,32
637,762	0,31
638,242	0,31
638,722	0,3
639,202	0,3
639,682	0,29
640,162	0,29
640,643	0,28
641,123	0,27
641,603	0,27
642,083	0,26
642,564	0,26
643,044	0,25
643,524	0,24
644,005	0,23
644,485	0,23
644,966	0,22
645,446	0,22
645,927	0,21
646,408	0,2
646,888	0,2
647,369	0,19
647,85	0,18
648,331	0,18
648,812	0,17
649,293	0,16
649,773	0,16
650,254	0,15
650,736	0,15
651,217	0,14
651,698	0,13
652,179	0,13
652,66	0,12
653,141	0,12
653,623	0,11
654,104	0,11
654,585	0,1
655,067	0,1
655,548	0,09
656,03	0,09
656,511	0,09
656,993	0,08
657,474	0,08
657,956	0,08
658,438	0,07
658,919	0,07
659,401	0,06
659,883	0,06
660,365	0,06
660,847	0,05
661,329	0,05
661,811	0,05
662,293	0,05
662,775	0,04
663,257	0,04
663,739	0,04
664,221	0,04
664,703	0,03
665,186	0,03
665,668	0,03
666,15	0,03
666,633	0,03
667,115	0,02
667,598	0,02
668,08	0,02
668,563	0,02
669,046	0,02
669,528	0,02
670,011	0,02
670,494	0,01
670,976	0,01
671,459	0,01
671,942	0,01
672,425	0,01
672,908	0,01
673,391	0,01
673,874	0,01
674,357	0,01
674,84	0
675,323	0
675,807	0
676,29	0
676,773	0
677,256	0
677,74	0
678,223	0
678,707	-0
679,19	-0
679,674	-0
680,157	-0
680,641	-0
681,125	-0
681,608	-0
682,092	-0
682,576	-0
683,06	-0
683,544	-0
684,028	-0,01
684,512	-0,01
684,996	-0,01
685,48	-0,01
685,964	-0,01
686,448	-0,01
686,932	-0,01
687,416	-0,01
687,9	-0,01
688,385	-0,01
688,869	-0,01
689,354	-0,01
689,838	-0,01
690,322	-0,01
690,807	-0,01
691,292	-0,01
691,776	-0,01
692,261	-0,01
692,745	-0,01
693,23	-0,01
693,715	-0,01
694,2	-0,01
694,685	-0,01
695,17	-0,01
695,655	-0,01
696,14	-0,01
696,625	-0,01
697,11	-0,01
697,595	-0,01
698,08	-0,01
698,565	-0,01
699,05	-0,01
699,536	-0,01
700,021	-0,01
700,506	-0,01
700,992	-0,01
701,477	-0,01
701,963	-0,01
702,448	-0,01
702,934	-0,01
703,42	-0,01
703,905	-0,01
704,391	-0,01
704,877	-0,01
705,363	-0,01
705,848	-0,01
706,334	-0,01
706,82	-0,01
707,306	-0,01
707,792	-0,01
708,278	-0,01
708,764	-0,01
709,251	-0,01
709,737	-0,01
710,223	-0,01
710,709	-0,01
711,196	-0,01
711,682	-0,01
712,168	-0,01
712,655	-0,01
713,141	-0,01
713,628	-0,01
714,114	-0,01
714,601	-0,01
715,088	-0,01
715,574	-0,01
716,061	-0,01
716,548	-0,01
717,035	-0,01
717,522	-0,01
718,009	-0,01
718,496	-0,01
718,983	-0,01
719,47	-0,01
719,957	-0,01
720,444	-0,01
720,931	-0,01
721,418	-0,01
721,906	-0,01
722,393	-0,01
722,88	-0,01
723,368	-0,01
723,855	-0,01
724,343	-0,01
724,83	-0,01
725,318	-0,01
725,806	-0,01
726,293	-0,01
726,781	-0,01
727,269	-0,01
727,757	-0,01
728,244	-0,01
728,732	-0,01
729,22	-0,01
729,708	-0,01
730,196	-0,01
730,684	-0,01
731,172	-0,01
731,661	-0,01
732,149	-0,01
732,637	-0,01
733,125	-0,01
733,614	-0,01
734,102	-0,01
734,591	-0,01
735,079	-0,01
735,568	-0,01
736,056	-0,01
736,545	-0,01
737,033	-0,01
737,522	-0,01
738,011	-0,01
738,499	-0,01
738,988	-0,01
739,477	-0,01
739,966	-0,01
740,455	-0,01
740,944	-0,01
741,433	-0,01
741,922	-0,01
742,411	-0,01
742,9	-0,01
743,39	-0,01
743,879	-0,01
744,368	-0,01
744,858	-0,01
745,347	-0,01
745,836	-0,01
746,326	-0,01
746,815	-0,01
747,305	-0,01
747,795	-0,01
748,284	-0,01
748,774	-0,01
749,264	-0,01
749,754	-0,01
750,243	-0,01
750,733	-0,01
751,223	-0,01
751,713	-0,01
752,203	-0,01
752,693	-0,01
753,183	-0,01
753,674	-0,01
754,164	-0,01
754,654	-0,01
755,144	-0,01
755,635	-0,01
756,125	-0,01
756,615	-0,01
757,106	-0,01
757,596	-0,01
758,087	-0,01
758,578	-0,01
759,068	-0,01
759,559	-0,01
760,05	-0,01
760,54	-0,01
761,031	-0,01
761,522	-0,01
762,013	-0,01
762,504	-0,01
762,995	-0,01
763,486	-0,01
763,977	-0,01
764,468	-0,01
764,959	-0,01
765,451	-0,01
765,942	-0,01
766,433	-0,01
766,925	-0,01
767,416	-0,01
767,907	-0,01
768,399	-0,01
768,89	-0,01
769,382	-0,01
769,874	-0,01
770,365	-0,01
770,857	-0,01
771,349	-0,01
771,841	-0,01
772,333	-0,01
772,824	-0,01
773,316	-0,01
773,808	-0,01
774,3	-0,01
774,792	-0,01
775,285	-0,01
775,777	-0,01
776,269	-0,01
776,761	-0,01
777,254	-0,01
777,746	-0,01
778,238	-0,01
778,731	-0,01
779,223	-0,01
779,716	-0,01
780,208	-0,01
780,701	-0,01
781,194	-0,01
781,686	-0,01
782,179	-0,01
782,672	-0,01
783,165	-0,01
783,658	-0,01
784,151	-0,01
784,644	-0,01
785,137	-0,01
785,63	-0,01
786,123	-0,01
786,616	-0,01
787,109	-0,01
787,603	-0,01
788,096	-0,01
788,589	-0,01
789,083	-0,01
789,576	-0,01
790,07	-0,01
790,563	-0,01
791,057	-0,01
791,55	-0,01
792,044	-0,01
792,538	-0,01
793,032	-0,01
793,525	-0,01
794,019	-0,01
794,513	-0,01
795,007	-0,01
795,501	-0,01
795,995	-0,01
796,489	-0,01
796,983	-0,01
797,478	-0,01
797,972	-0,01
798,466	-0,01
798,96	-0,01
799,455	-0,01
799,949	-0,01
800,444	-0,01
800,938	-0,01
801,433	-0,01
801,927	-0,01
802,422	-0,01
802,917	-0,01
803,411	-0,01
803,906	-0,01
804,401	-0,01
804,896	-0,01
805,391	-0,01
805,886	-0,01
806,381	-0,01
806,876	-0,01
807,371	-0,01
807,866	-0,01
808,361	-0,01
808,856	-0,01
809,352	-0,01
809,847	-0,01
810,342	-0,01
810,838	-0,01
811,333	-0,01
811,829	-0,01
812,324	-0,01
812,82	-0,01
813,316	-0,01
813,811	-0,01
814,307	-0,01
814,803	-0,01
815,299	-0,01
815,795	-0,01
816,291	-0,01
816,787	-0,01
817,283	-0,01
817,779	-0,01
818,275	-0,01
818,771	-0,01
819,267	-0,01
819,764	-0,01
820,26	-0,01
820,756	-0,01
821,253	-0,01
821,749	-0,01
822,246	-0,01
822,742	-0,01
